         0    0.1446    1.4404    4.2689   -9.2554   -2.8426    0.2229   -2.5650  -10.8490
    0.0040   -0.1554    0.1404    3.3689  -10.5550   -2.0426  -21.7770  -16.5650   -6.8493
    0.0080    2.1446    0.5404    4.4689   -7.7554    0.1574   -3.7771   -8.5650  -18.8490
    0.0120    1.9446   -2.2596    0.8689   -8.5554    0.4574  -11.7770  -20.5650  -28.8490
    0.0160    3.3446   -0.7596    2.2689   -6.9554    1.6574   -9.7771  -26.5650  -28.8490
    0.0200    3.0446   -2.3596    2.5689   -7.7554    1.6574   -5.7771  -32.5650  -30.8490
    0.0240    4.1446   -3.8596    3.1689   -6.8554    1.8574  -13.7770  -40.5650  -54.8490
    0.0280    4.0446   -4.7596    3.2689   -8.6554    2.7574  -13.7770  -36.5650  -34.8490
    0.0320    5.9446   -2.8596    3.1689   -5.2554    4.4574   -3.7771  -24.5650  -32.8490
    0.0360    2.9446   -3.4596    0.7689   -7.3554    3.8574   -3.7771  -24.5650  -36.8490
    0.0400   -1.3554   -2.9596    2.0689   -6.3554    3.5574  -11.7770  -28.5650  -60.8490
    0.0440   -3.4554   -5.4596    2.0689   -6.3554    4.6574    2.2229  -10.5650  -26.8490
    0.0480   -0.9554   -3.8596    4.5689   -5.9554    6.3574   -1.7771  -12.5650  -10.8490
    0.0520    0.9446   -4.8596    3.3689   -6.1554    6.1574   -7.7771  -24.5650  -12.8490
    0.0560    3.5446   -2.6596    4.6689   -2.8554    7.0574    8.2229  -14.5650  -22.8490
    0.0600    2.5446   -3.2596    2.4689   -2.4554    4.2574    2.2229  -12.5650  -24.8490
    0.0640    2.8446   -1.8596    1.4689   -2.8554    2.9574    0.2229  -20.5650  -28.8490
    0.0680    2.0446   -2.5596   -3.8311   -3.9554   -1.0426  -25.7770  -26.5650  -14.8490
    0.0720    1.1446   -0.2596   -3.0311    0.3446   -0.9426    0.2229  -16.5650   -4.8493
    0.0760    0.9446   -2.2596   -2.6311    0.8446    0.1574    6.2229   -0.5650   -2.8493
    0.0800   -1.0554   -1.5596   -1.4311    1.4446    0.9574   -5.7771   -4.5650   -0.8493
    0.0840   -2.5554   -1.1596   -0.2311    0.3446    1.4574  -17.7770  -10.5650   -8.8493
    0.0880   -3.9554   -3.8596    0.4689   -1.0554    1.4574  -15.7770  -28.5650  -20.8490
    0.0920   -2.1554   -4.3596    1.9689    0.4446    4.7574   30.2230  -34.5650  -26.8490
    0.0960   -2.1554   -7.5596    1.5689    0.9446    6.8574   54.2230  -46.5650  -12.8490
    0.1000   -4.9554  -11.7600    2.4689    3.9446    9.4574   74.2230  -24.5650    3.1507
    0.1040   -5.1554  -12.7600    1.7689    4.9446    6.4574   62.2230   -0.5650   25.1510
    0.1080   -9.2554   -7.4596   -3.7311    5.9446   -2.9426   20.2230   89.4350  125.1500
    0.1120  -14.8550    4.6404  -12.2310    9.9446  -15.6430  -75.7770  241.4400  275.1500
    0.1160  -25.3550   18.8400  -27.2310   12.7450  -34.1430 -225.7800  425.4300  455.1500
    0.1200  -32.9550   42.9400  -42.5310   12.3450  -54.5430 -405.7800  571.4300  577.1500
    0.1240  -38.3550   63.5400  -54.3310   10.0450  -67.4430 -543.7800  713.4300  709.1500
    0.1280  -44.7550   78.9400  -63.1310    7.1446  -82.4430 -667.7800  815.4300  773.1500
    0.1320  -46.7550   90.8400  -69.7310   -1.2554  -90.8430 -629.7800  821.4300  665.1500
    0.1360  -27.4550   97.6400  -59.0310  -15.0550  -78.6430 -439.7800  575.4300  283.1500
    0.1400    4.4446   88.0400  -35.4310  -27.7550  -52.4430 -203.7800  267.4400  -56.8490
    0.1440   24.2450   63.4400  -14.6310  -35.4550  -26.7430  -45.7770  -38.5650 -270.8500
    0.1480   33.9450   35.9400    4.5689  -34.2550   -3.6426   98.2230 -248.5600 -408.8500
    0.1520   33.5450    9.1404   13.1690  -24.4550   12.3570  198.2200 -256.5600 -334.8500
    0.1560   25.6450  -11.1600   18.5690  -12.1550   21.5570  194.2200 -246.5600 -264.8500
    0.1600   16.2450  -23.9600   19.2690   -3.3554   25.4570  178.2200 -222.5600 -186.8500
    0.1640   10.7450  -30.0600   17.8690    1.3446   25.6570  158.2200 -218.5600 -152.8500
    0.1680    7.1446  -31.6600   18.5690    4.9446   25.7570  154.2200 -202.5600 -124.8500
    0.1720    5.9446  -31.1600   16.7690    4.7446   23.9570  138.2200 -214.5600 -136.8500
    0.1760    3.4446  -31.5600   13.1690    3.5446   22.3570  134.2200 -200.5600 -114.8500
    0.1800    4.0446  -30.0600   15.3690    6.2446   22.7570  122.2200 -190.5600 -110.8500
    0.1840    2.3446  -29.7600   13.9690    9.2446   21.8570  120.2200 -178.5600 -100.8500
    0.1880    2.2446  -29.6600   14.0690    6.7446   20.4570  114.2200 -168.5600  -94.8490
    0.1920    3.5446  -27.5600   14.3690    5.5446   17.6570  102.2200 -174.5600 -112.8500
    0.1960    3.4446  -27.9600   14.7690    4.8446   16.0570  108.2200 -138.5600  -88.8490
    0.2000    3.6446  -23.1600   13.7690    5.6446   16.3570  106.2200 -126.5600  -74.8490
    0.2040    4.1446  -20.5600   15.9690    7.6446   17.0570  104.2200 -106.5600  -56.8490
    0.2080    4.3446  -20.3600   14.7690    5.7446   15.9570   76.2230 -114.5600  -62.8490
    0.2120    3.5446  -18.4600   12.7690    4.8446   14.3570   84.2230 -106.5600  -68.8490
    0.2160    2.0446  -14.4600    7.1689    4.1446   11.1570   72.2230 -100.5600  -70.8490
    0.2200    2.0446  -11.3600    5.4689    6.1446    9.2574   72.2230  -96.5650  -66.8490
    0.2240    1.5446  -10.7600    5.4689    7.2446    9.0574   70.2230  -74.5650  -62.8490
    0.2280    0.5446  -13.0600    3.6689    5.7446    9.1574   58.2230  -62.5650  -44.8490
    0.2320    1.2446  -12.4600    3.7689    4.9446    8.8574   42.2230  -76.5650  -54.8490
    0.2360    1.7446  -12.6600    5.0689    4.5446    7.4574   40.2230  -62.5650  -48.8490
    0.2400    0.4446  -11.7600    3.8689   -0.0554    5.3574   32.2230  -50.5650  -10.8490
    0.2440    0.5446   -9.5596    3.1689    0.6446    4.3574   28.2230  -64.5650  -36.8490
    0.2480   -0.0554  -10.4600    1.5689    2.1446    4.0574   36.2230  -36.5650  -18.8490
    0.2520    1.1446   -9.3596    1.2689    1.7446    4.5574   40.2230  -26.5650  -10.8490
    0.2560    2.9446   -6.0596    2.9689    3.3446    6.1574   36.2230  -44.5650  -28.8490
    0.2600    0.8446   -6.8596    3.0689    3.5446    6.4574   30.2230  -22.5650  -14.8490
    0.2640   -2.3554   -7.2596    3.2689    5.0446    5.7574   26.2230  -28.5650  -12.8490
    0.2680   -2.3554   -7.0596    3.0689    5.2446    4.5574   20.2230  -24.5650   -8.8493
    0.2720   -1.4554   -7.4596    3.2689    5.8446    4.7574   32.2230  -14.5650   -8.8493
    0.2760   -3.1554   -6.8596    1.5689    2.4446    3.0574   18.2230   -6.5650    3.1507
    0.2800   -1.3554   -2.9596    2.6689    4.2446    3.2574   14.2230  -18.5650  -12.8490
    0.2840   -2.0554   -1.6596    1.1689    2.0446    1.7574   16.2230    1.4350    7.1507
    0.2880   -1.8554   -0.5596    0.9689    2.5446    0.6574   16.2230   -6.5650    1.1507
    0.2920   -0.8554   -1.2596    1.5689    3.6446    0.1574   16.2230   -0.5650    1.1507
    0.2960   -2.0554   -1.4596   -0.3311    2.5446   -0.4426    8.2229   11.4350   25.1510
    0.3000   -1.3554   -0.8596    0.6689    1.8446    0.2574   12.2230    5.4350    5.1507
    0.3040   -1.3554   -0.3596   -0.1311    4.2446   -0.6426   14.2230   13.4350   13.1510
    0.3080   -0.2554    1.1404   -3.0311    5.9446   -0.9426   26.2230   23.4350   23.1510
    0.3120    0.4446    2.7404   -4.9311    4.5446   -2.0426    2.2229    9.4350   -0.8493
    0.3160    1.2446    4.7404   -4.7311    4.5446   -3.8426  -13.7770    1.4350    7.1507
    0.3200    1.2446    5.1404   -4.6311    5.4446   -3.9426  -11.7770   13.4350   23.1510
    0.3240   -0.1554    5.2404   -5.1311    3.1446   -4.0426  -17.7770   17.4350   45.1510
    0.3280   -0.1554    4.3404   -3.1311    2.9446   -3.8426  -17.7770   33.4350   37.1510
    0.3320   -1.8554    1.1404   -4.3311    5.4446   -1.3426   -3.7771   43.4350   51.1510
    0.3360   -0.9554    1.2404   -4.3311    8.7446   -0.5426  -25.7770   35.4350   39.1510
    0.3400    0.6446    5.0404   -7.7311    9.7446   -0.4426  -27.7770   37.4350   43.1510
    0.3440    7.1446   11.6400   -9.4311    9.8446    2.2574  -21.7770   51.4350   53.1510
    0.3480   14.9450   18.2400  -12.6310    7.5446    0.9574  -27.7770   51.4350   35.1510
    0.3520   12.8450   18.4400  -16.9310    7.4446   -5.2426  -13.7770   57.4350   47.1510
    0.3560    3.3446   11.5400  -17.0310    6.1446  -13.2430  -19.7770   55.4350   55.1510
    0.3600  -13.2550   -3.2596   -8.4311    3.1446  -18.5430  -31.7770   53.4350   71.1510
    0.3640  -20.0550   -9.2596   -1.0311    0.3446  -14.5430  -31.7770   45.4350   49.1510
    0.3680  -16.1550   -5.7596   -2.1311    1.1446  -10.2430  -43.7770   35.4350   47.1510
    0.3720   -8.0554    0.2404   -1.7311    3.8446   -6.2426  -37.7770   57.4350   49.1510
    0.3760   -8.0554    2.5404   -3.8311    3.4446   -5.2426  -31.7770   55.4350   57.1510
    0.3800   -8.7554    0.5404   -3.0311    4.9446   -4.3426  -35.7770   47.4350   51.1510
    0.3840   -8.6554   -0.2596   -3.6311    3.5446   -3.8426  -33.7770   53.4350   61.1510
    0.3880   -8.7554    1.6404   -2.6311    3.3446   -3.6426  -47.7770   33.4350   43.1510
    0.3920   -7.2554    2.8404   -1.2311    3.2446   -1.3426  -19.7770   47.4350   29.1510
    0.3960   -7.4554   -2.0596   -2.6311   -0.0554   -1.8426  -19.7770   49.4350   39.1510
    0.4000   -5.2554   -1.7596   -2.4311   -0.7554   -1.9426  -17.7770   43.4350   39.1510
    0.4040   -3.0554   -0.2596   -1.8311   -0.4554   -1.7426  -13.7770   29.4350   37.1510
    0.4080   -3.2554    0.9404   -2.4311    0.3446   -1.6426  -19.7770   23.4350   23.1510
    0.4120   -3.9554   -0.6596   -2.0311    1.9446   -1.3426  -19.7770  -10.5650    7.1507
    0.4160   -5.8554   -3.7596   -0.9311    2.4446    0.6574   10.2230   17.4350   55.1510
    0.4200   -3.3554   -3.9596    0.6689    2.0446    2.6574    2.2229   -6.5650   25.1510
    0.4240   -1.5554   -4.9596    2.7689    4.1446    6.7574   12.2230  -12.5650   15.1510
    0.4280   -0.0554   -7.7596    4.6689    1.3446    7.9574    4.2229  -32.5650   -8.8493
    0.4320    3.2446   -5.0596    6.4689    1.0446    9.2574   34.2230  -34.5650  -38.8490
    0.4360    2.8446   -6.8596    5.1689    1.1446    8.1574   50.2230  -36.5650  -28.8490
    0.4400    7.9446   -4.8596    6.0689    0.2446    7.5574   60.2230  -52.5650  -56.8490
    0.4440    7.2446   -6.8596    2.2689   -2.3554    4.4574   36.2230  -70.5650  -58.8490
    0.4480   10.5450   -3.1596    4.9689   -0.9554    6.0574   50.2230  -72.5650  -66.8490
    0.4520   10.9450   -1.9596    6.7689    0.9446    6.4574   54.2230  -72.5650  -82.8490
    0.4560   10.0450   -3.3596    6.1689   -0.8554    5.9574   52.2230  -68.5650  -76.8490
    0.4600    9.4446   -3.5596    6.5689   -3.1554    4.9574   38.2230  -98.5650  -96.8490
    0.4640    8.8446   -4.8596    5.7689   -5.5554    6.2574   72.2230  -44.5650  -36.8490
    0.4680   11.0450   -3.1596    4.6689   -4.2554    4.1574   20.2230  -88.5650 -102.8500
    0.4720    9.6446   -3.4596    3.6689   -1.9554    5.1574   36.2230  -74.5650  -96.8490
    0.4760   11.4450   -1.8596    3.9689   -1.2554    6.3574   28.2230  -62.5650  -80.8490
    0.4800   10.8450   -2.1596    6.5689   -0.6554    8.1574   32.2230  -54.5650  -72.8490
    0.4840    7.9446   -3.3596    6.4689   -3.5554    8.2574   18.2230  -56.5650  -62.8490
    0.4880    7.4446   -3.7596    6.3689   -3.6554    8.2574   26.2230  -64.5650  -70.8490
    0.4920    5.7446   -1.5596    5.7689   -4.0554    6.7574   32.2230  -48.5650  -48.8490
    0.4960    8.4446   -0.4596    5.8689   -4.6554    5.6574   16.2230  -56.5650  -56.8490
    0.5000    9.3446   -1.5596    5.9689   -3.8554    7.1574   40.2230  -16.5650  -38.8490
    0.5040    9.2446   -3.5596    5.5689   -1.4554    5.2574   10.2230  -46.5650  -70.8490
    0.5080    4.7446   -3.6596    4.1689   -1.0554    4.5574   16.2230  -30.5650  -44.8490
    0.5120    1.9446   -2.3596    2.8689   -2.9554    4.7574   16.2230  -28.5650  -28.8490
    0.5160    1.0446   -3.4596    3.3689   -2.7554    4.7574   12.2230  -38.5650  -32.8490
    0.5200    1.0446   -4.5596    2.3689   -0.6554    2.4574   18.2230  -34.5650  -40.8490
    0.5240    0.9446   -2.2596    0.0689   -2.5554    1.6574   14.2230  -26.5650  -28.8490
    0.5280    1.9446   -0.5596    3.3689   -1.4554    3.6574    6.2229  -26.5650  -24.8490
    0.5320    0.6446   -1.8596    4.8689   -0.9554    5.1574   -1.7771  -18.5650  -24.8490
    0.5360    0.6446   -3.5596    6.0689   -0.5554    5.4574    0.2229  -14.5650  -18.8490
    0.5400   -0.4554   -4.4596    3.0689    1.0446    3.6574  -11.7770  -40.5650  -34.8490
    0.5440   -0.0554   -1.7596    0.2689    0.2446    3.1574    8.2229  -12.5650  -10.8490
    0.5480    2.4446    2.3404   -0.1311    0.9446    0.3574  -15.7770  -34.5650  -42.8490
    0.5520    1.3446    2.3404   -0.9311    0.4446   -0.3426   -5.7771  -22.5650  -30.8490
    0.5560    1.3446    1.2404   -0.6311    1.9446   -1.4426    6.2229  -14.5650  -22.8490
    0.5600    0.1446   -0.8596   -1.4311    3.2446   -0.9426    8.2229   -6.5650  -16.8490
    0.5640    0.0446   -2.0596    0.2689   -0.3554   -0.0426    2.2229  -14.5650  -24.8490
    0.5680   -1.9554   -0.5596   -0.0311   -2.5554   -0.9426  -21.7770  -30.5650  -16.8490
    0.5720   -1.9554    0.2404    1.5689   -1.4554   -0.4426  -11.7770  -12.5650   13.1510
    0.5760   -1.7554    0.3404    2.6689    0.5446    0.8574    4.2229   -0.5650   11.1510
    0.5800   -0.3554    1.2404    4.6689   -1.9554    0.2574   -3.7771  -10.5650  -16.8490
    0.5840    0.0446   -0.4596    3.2689   -3.6554   -0.3426   -7.7771  -14.5650   -6.8493
    0.5880    1.8446    0.3404    0.5689   -2.5554   -0.2426  -11.7770  -20.5650  -14.8490
    0.5920    0.4446   -1.7596    0.7689   -0.8554    1.8574   14.2230   -4.5650  -18.8490
    0.5960    0.1446   -0.0596   -0.3311   -0.8554    0.3574   -7.7771  -26.5650  -40.8490
    0.6000   -1.8554   -1.0596   -0.9311   -1.1554   -0.2426    0.2229  -24.5650  -38.8490
    0.6040   -1.9554   -1.7596   -1.5311   -1.3554   -0.2426    2.2229    1.4350  -12.8490
    0.6080    0.3446    0.7404   -0.7311   -0.4554   -0.2426   -7.7771  -20.5650  -24.8490
    0.6120   -0.8554    1.8404   -0.8311   -1.3554   -1.3426  -21.7770  -32.5650  -30.8490
    0.6160   -2.4554   -0.2596   -1.2311   -0.8554   -1.4426   -9.7771  -20.5650  -24.8490
    0.6200   -0.4554    0.1404    2.0689   -1.6554   -0.9426    0.2229   -2.5650   -4.8493
    0.6240    2.0446   -0.9596    1.5689    0.3446    0.4574   18.2230    9.4350  -10.8490
    0.6280    2.2446   -0.8596    1.4689   -0.9554    0.6574   -7.7771   -8.5650  -16.8490
    0.6320    0.5446   -1.0596    0.4689   -3.0554    0.9574  -17.7770  -22.5650  -22.8490
    0.6360    0.2446   -1.7596    1.2689   -2.0554    1.6574    0.2229   -8.5650  -24.8490
    0.6400   -0.7554   -2.5596   -0.3311   -0.4554    0.2574   -1.7771  -14.5650  -18.8490
    0.6440   -1.7554   -1.9596   -0.7311   -0.2554    0.3574   10.2230   -8.5650    3.1507
    0.6480    1.2446    0.0404   -0.6311   -1.6554   -2.0426   -7.7771  -30.5650  -14.8490
    0.6520    0.7446    0.0404   -0.1311   -1.4554   -1.6426   12.2230   -4.5650    3.1507
    0.6560    0.2446   -1.4596    1.7689    0.2446   -2.2426   -1.7771  -22.5650  -10.8490
    0.6600   -0.7554   -0.7596    1.7689    0.6446    0.0574    8.2229   -4.5650   -6.8493
    0.6640   -2.0554   -0.4596    1.2689    1.2446    0.0574   -9.7771  -12.5650  -14.8490
    0.6680   -1.0554   -0.1596    0.9689    3.0446    1.3574    6.2229    1.4350    9.1507
    0.6720   -4.0554    1.4404   -0.0311    3.4446    2.3574    8.2229    9.4350   19.1510
    0.6760   -4.4554    1.5404   -1.6311    3.7446    1.8574   -5.7771   13.4350   15.1510
    0.6800   -4.4554    0.7404   -3.2311    2.3446    0.9574   14.2230   25.4350   27.1510
    0.6840   -2.4554    3.5404   -2.1311    1.1446   -1.1426   34.2230   43.4350   31.1510
    0.6880   -2.8554    5.5404   -4.5311    1.7446   -3.2426   32.2230   41.4350   35.1510
    0.6920   -1.5554    7.3404   -5.7311    0.8446   -5.5426    2.2229   29.4350   25.1510
    0.6960   -3.4554    7.6404   -6.9311    1.6446   -6.3426   16.2230   45.4350   33.1510
    0.7000   -5.2554    6.7404   -5.9311   -1.8554   -6.0426   10.2230   39.4350   51.1510
    0.7040   -3.7554    6.6404   -4.4311   -1.1554   -2.8426    8.2229   49.4350   49.1510
    0.7080   -2.5554    2.9404   -4.3311    0.2446   -2.7426  -11.7770   19.4350   41.1510
    0.7120   -2.2554    2.5404   -3.0311   -0.0554   -1.3426  -27.7770    9.4350   17.1510
    0.7160   -1.8554    0.9404   -2.4311   -0.1554   -0.8426  -37.7770  -10.5650   -0.8493
    0.7200   -1.3554   -0.7596   -0.9311    1.6446   -1.3426  -33.7770    1.4350   -8.8493
    0.7240   -0.9554   -0.4596   -0.4311    0.5446   -3.4426  -47.7770  -12.5650  -32.8490
    0.7280    0.0446    1.6404    1.2689    0.3446   -3.2426  -29.7770   -4.5650   -6.8493
    0.7320    0.1446    0.5404    0.5689    0.1446   -2.0426  -33.7770  -18.5650  -20.8490
    0.7360   -5.0554    1.0404    1.3689    0.2446   -0.3426  -17.7770  -12.5650   -4.8493
    0.7400   -6.0554   -3.2596    1.1689    0.0446   -0.2426  -27.7770  -36.5650  -36.8490
    0.7440   -6.4554   -4.8596    1.3689   -1.5554   -0.0426  -17.7770  -32.5650  -40.8490
    0.7480   -5.7554   -3.5596    4.3689   -1.8554    0.4574  -13.7770  -26.5650  -22.8490
    0.7520   -5.6554   -3.4596    5.3689   -0.8554    2.2574   -3.7771  -18.5650  -18.8490
    0.7560   -6.5554   -5.7596    5.0689    0.2446    3.2574   -3.7771  -28.5650  -40.8490
    0.7600   -5.6554   -4.7596    3.6689   -2.3554    2.0574  -13.7770  -40.5650  -52.8490
    0.7640   -1.7554   -3.1596    3.0689   -1.4554    1.2574   -9.7771  -38.5650  -48.8490
    0.7680   -2.4554   -1.7596    2.4689    1.0446    2.0574   -9.7771  -38.5650  -42.8490
    0.7720   -1.3554   -1.1596    4.8689    4.2446    4.5574    2.2229  -14.5650  -34.8490
    0.7760   -2.8554   -3.3596    4.0689   -0.1554    3.1574    2.2229  -16.5650  -14.8490
    0.7800   -0.7554    0.0404    2.8689   -2.0554    1.7574   -9.7771  -28.5650  -26.8490
    0.7840   -2.3554   -2.4596    2.8689   -3.5554    3.2574   -7.7771  -28.5650  -36.8490
    0.7880   -2.2554   -6.0596    2.8689   -1.4554    3.6574  -11.7770  -30.5650  -36.8490
    0.7920    0.0446   -4.1596    3.6689    1.4446    5.8574   -1.7771  -20.5650  -28.8490
    0.7960    1.9446   -0.0596    1.5689    4.1446    6.8574   -3.7771   -8.5650  -18.8490
    0.8000    6.5446    2.5404   -0.3311    6.5446    7.2574  -11.7770  -22.5650  -22.8490
    0.8040   12.8450    8.4404   -5.6311    6.3446    7.2574   -7.7771  -16.5650  -14.8490
    0.8080   15.4450   13.2400  -11.9310    4.1446    1.8574   -7.7771  -12.5650  -12.8490
    0.8120   10.8450   10.0400  -14.3310    0.6446   -5.4426  -27.7770  -28.5650  -24.8490
    0.8160   -6.1554   -5.4596   -5.1311   -2.2554   -8.7426  -11.7770  -14.5650  -30.8490
    0.8200  -19.7550  -17.4600    4.4689   -3.6554   -6.8426   -1.7771  -30.5650  -24.8490
    0.8240  -15.3550  -15.5600    9.5689   -0.6554    0.0574   30.2230  -42.5650  -22.8490
    0.8280   -7.2554  -13.4600    9.8689    1.4446    7.0574   64.2230  -32.5650   -2.8493
    0.8320   -6.5554  -14.9600    6.3689    3.0446    7.0574   46.2230  -52.5650   -6.8493
    0.8360   -7.1554  -13.1600    7.0689    7.1446    4.3574   54.2230   -2.5650   37.1510
    0.8400  -12.1550   -6.4596    0.1689    8.9446   -3.9426   14.2230  141.4400  189.1500
    0.8440  -17.6550    8.6404   -9.3311   12.6450  -17.4430  -97.7770  297.4400  345.1500
    0.8480  -26.0550   27.0400  -25.4310   12.4450  -38.4430 -267.7800  465.4300  483.1500
    0.8520  -36.4550   50.1400  -44.1310    6.5446  -59.3430 -453.7800  619.4300  625.1500
    0.8560  -42.7550   68.7400  -56.9310    2.2446  -74.9430 -633.7800  723.4300  717.1500
    0.8600  -46.4550   85.3400  -67.1310    0.3446  -89.4430 -707.7800  825.4300  751.1500
    0.8640  -43.9550  100.6400  -69.9310   -8.4554  -92.7430 -605.7800  769.4300  549.1500
    0.8680  -21.1550  101.1400  -54.4310  -22.3550  -75.9430 -393.7800  517.4300  201.1500
    0.8720    9.9446   88.9400  -32.3310  -35.3550  -49.5430 -157.7800  193.4400 -112.8500
    0.8760   29.4450   60.5400   -9.9311  -38.2550  -21.9430   20.2230  -80.5650 -318.8500
    0.8800   37.7450   29.5400    7.4689  -32.7550    0.7574  142.2200 -246.5600 -380.8500
    0.8840   32.3450    2.0404   14.9690  -20.6550   14.4570  184.2200 -276.5600 -322.8500
    0.8880   21.7450  -16.5600   18.2690   -7.6554   23.0570  188.2200 -238.5600 -240.8500
    0.8920   13.4450  -28.1600   19.9690    0.2446   26.1570  164.2200 -236.5600 -196.8500
    0.8960    9.1446  -33.0600   21.3690    4.5446   28.1570  160.2200 -220.5600 -154.8500
    0.9000    6.4446  -34.8600   20.0690    6.8446   27.1570  156.2200 -212.5600 -118.8500
    0.9040    6.3446  -33.0600   17.5690    4.8446   24.2570  124.2200 -232.5600 -142.8500
    0.9080    7.0446  -31.9600   16.6690    6.5446   22.5570  126.2200 -220.5600 -134.8500
    0.9120    6.2446  -29.1600   15.8690    8.6446   23.0570  124.2200 -196.5600 -136.8500
    0.9160    5.0446  -27.6600   15.3690    6.9446   23.0570  122.2200 -172.5600 -126.8500
    0.9200    5.2446  -26.6600   14.4690    6.2446   20.7570  106.2200 -182.5600 -126.8500
    0.9240    3.3446  -27.1600   12.3690    5.9446   19.4570  108.2200 -158.5600  -90.8490
    0.9280    4.4446  -22.8600   11.1690    4.4446   16.4570   88.2230 -162.5600 -100.8500
    0.9320    3.3446  -22.1600   11.8690    4.9446   16.2570  104.2200 -144.5600 -100.8500
    0.9360    3.9446  -21.8600    9.5689    3.8446   15.4570  112.2200 -106.5600  -60.8490
    0.9400    3.8446  -17.8600    7.2689    2.8446   12.7570   66.2230 -132.5600  -84.8490
    0.9440    3.1446  -17.5600    9.2689    3.1446   14.4570   84.2230  -98.5650  -56.8490
    0.9480    2.0446  -18.2600    7.4689    0.3446   11.1570   40.2230 -124.5600  -86.8490
    0.9520    1.0446  -15.1600    6.4689    2.9446   11.4570   68.2230  -94.5650  -70.8490
    0.9560    0.8446  -13.4600    5.0689    1.6446    9.9574   58.2230  -90.5650  -58.8490
    0.9600    1.3446  -11.7600    4.9689   -1.2554    9.2574   46.2230  -88.5650  -40.8490
    0.9640    2.3446  -10.5600    6.3689   -0.4554   10.0570   62.2230  -46.5650  -14.8490
    0.9680    4.3446  -10.0600    4.4689   -0.3554    8.6574   44.2230  -58.5650  -46.8490
    0.9720    4.2446   -6.6596    3.7689    0.9446    6.9574   44.2230  -58.5650  -40.8490
    0.9760    3.5446   -4.1596    3.3689   -0.5554    6.4574   40.2230  -56.5650  -40.8490
    0.9800    3.3446   -6.1596    2.3689    0.2446    6.8574   42.2230  -50.5650  -34.8490
    0.9840    2.9446   -6.4596    2.5689    2.8446    6.3574   44.2230  -32.5650  -32.8490
    0.9880    0.4446   -7.3596    1.6689    1.5446    4.1574   48.2230  -18.5650  -14.8490
    0.9920   -0.0554   -5.9596    1.2689    0.4446    2.0574   28.2230  -30.5650  -12.8490
    0.9960   -0.4554   -5.7596    2.1689    0.9446    2.9574   20.2230  -32.5650   -2.8493
    1.0000   -0.7554   -5.5596    3.5689    1.4446    3.0574   14.2230  -26.5650   -6.8493
    1.0040   -0.3554   -6.4596    2.8689    1.5446    3.6574   16.2230  -30.5650  -10.8490
    1.0080    1.5446   -5.0596    2.3689    1.0446    3.1574   20.2230  -10.5650  -14.8490
    1.0120    2.3446   -4.5596    1.4689    1.9446    2.0574   14.2230  -20.5650   -4.8493
    1.0160    3.2446   -2.8596    2.0689    2.9446    2.7574    4.2229  -18.5650   -2.8493
    1.0200    1.8446   -1.8596    1.1689    3.4446    3.6574   32.2230   15.4350   23.1510
    1.0240    5.2446   -1.0596    1.7689    3.6446    2.5574   16.2230   -2.5650    9.1507
    1.0280    4.3446   -1.3596    0.2689    1.2446    2.1574   10.2230   -2.5650   11.1510
    1.0320    4.7446   -0.3596   -0.2311   -1.0554   -0.6426  -13.7770  -10.5650    7.1507
    1.0360    4.6446    3.0404   -0.4311    0.0446   -0.8426   -3.7771   -0.5650   23.1510
    1.0400    3.8446    1.7404   -0.4311    0.1446   -0.2426   -1.7771    3.4350   23.1510
    1.0440    2.9446   -0.1596   -0.6311   -0.8554   -1.1426    6.2229   25.4350   31.1510
    1.0480    3.4446    0.7404   -1.5311    1.1446   -2.6426   -1.7771    5.4350   11.1510
    1.0520    0.9446   -1.0596   -2.9311    1.1446   -2.8426  -11.7770   15.4350   37.1510
    1.0560    0.4446    1.6404   -2.9311    1.3446   -3.1426  -21.7770   11.4350   31.1510
    1.0600   -0.0554    2.9404   -3.7311    2.9446   -2.9426  -31.7770    3.4350    9.1507
    1.0640   -0.7554    3.2404   -3.7311    3.7446   -3.5426  -17.7770   37.4350   33.1510
    1.0680   -1.2554    1.8404   -3.8311    5.3446   -3.3426   -9.7771   49.4350   45.1510
    1.0720   -1.1554    1.9404   -3.7311    3.9446   -4.3426  -19.7770   47.4350   45.1510
    1.0760   -1.4554    2.5404   -2.3311    3.9446   -4.4426  -19.7770   53.4350   67.1510
    1.0800   -2.3554    5.2404   -2.0311    5.2446   -4.2426  -29.7770   51.4350   63.1510
    1.0840   -3.1554    5.7404   -1.0311    3.6446   -4.7426  -33.7770   37.4350   43.1510
    1.0880   -6.2554    3.5404   -3.2311    1.2446   -4.6426  -33.7770   47.4350   55.1510
    1.0920   -1.7554    7.7404   -2.7311    1.7446   -1.9426  -15.7770   63.4350   61.1510
    1.0960   -0.6554    9.6404   -3.5311    1.7446   -3.2426  -31.7770   51.4350   65.1510
    1.1000    0.6446    9.9404   -3.5311    1.9446   -3.6426  -17.7770   57.4350   69.1510
    1.1040    0.9446    8.9404   -5.1311    0.9446   -6.2426  -47.7770   33.4350   43.1510
    1.1080    0.2446    5.3404   -4.8311    3.5446   -4.7426  -31.7770   39.4350   51.1510
    1.1120   -0.3554    8.1404   -4.1311    2.4446   -5.2426  -35.7770   35.4350   39.1510
    1.1160    0.6446    8.7404   -5.6311    2.8446   -5.3426  -11.7770   59.4350   69.1510
    1.1200    0.0446    8.7404   -5.4311    2.3446   -5.0426  -13.7770   57.4350   67.1510
    1.1240    0.3446    7.2404   -4.0311    1.1446   -3.8426  -25.7770   35.4350   59.1510
    1.1280   -0.9554    6.1404   -2.7311    2.0446   -2.9426  -11.7770   31.4350   43.1510
    1.1320    0.0446    3.6404   -3.9311    0.3446   -2.2426  -25.7770   17.4350   29.1510
    1.1360    0.3446    3.1404   -4.3311    1.8446    0.6574   -9.7771   17.4350   31.1510
    1.1400    0.6446    1.9404   -4.7311    2.2446    2.0574  -13.7770    9.4350   21.1510
    1.1440   -0.0554   -0.3596   -2.5311    0.4446    3.8574  -15.7770    1.4350   21.1510
    1.1480   -1.9554   -2.9596   -0.2311    0.4446    3.7574  -13.7770  -32.5650  -10.8490
    1.1520   -4.2554   -3.6596    0.2689   -1.2554    3.8574   22.2230   -6.5650   13.1510
    1.1560   -2.4554   -3.0596    0.8689   -4.8554    1.3574   10.2230  -46.5650  -30.8490
    1.1600    0.6446   -4.7596    2.4689   -6.0554    2.7574   38.2230  -40.5650  -24.8490
    1.1640    3.5446   -2.7596    4.5689   -5.3554    3.8574   46.2230  -38.5650  -24.8490
    1.1680    5.5446   -1.3596    5.3689   -4.2554    3.9574   46.2230  -46.5650  -38.8490
    1.1720    7.2446   -1.0596    6.5689   -4.2554    5.5574   46.2230  -52.5650  -44.8490
    1.1760    6.8446   -3.0596    5.0689   -4.1554    6.8574   38.2230  -62.5650  -66.8490
    1.1800    7.6446   -5.1596    6.0689   -3.2554    8.8574   50.2230  -64.5650  -78.8490
    1.1840    7.7446   -5.0596    6.7689   -4.3554    8.0574   36.2230  -78.5650  -84.8490
    1.1880    5.9446   -4.7596    6.9689   -4.7554    7.6574   42.2230  -68.5650  -82.8490
    1.1920    5.1446   -6.3596    7.9689   -3.5554    7.3574   52.2230  -52.5650  -68.8490
    1.1960    5.1446   -7.4596    7.8689   -1.9554    5.6574   24.2230  -78.5650  -94.8490
    1.2000    5.6446   -6.4596    9.0689   -0.2554    6.4574   42.2230  -64.5650  -72.8490
    1.2040    6.2446   -3.0596    8.2689   -1.9554    5.4574   18.2230  -74.5650  -80.8490
    1.2080    6.7446   -2.8596    7.5689   -1.6554    7.0574   22.2230  -66.5650  -66.8490
    1.2120    7.1446   -3.4596    7.8689   -1.1554    7.7574   50.2230  -36.5650  -56.8490
    1.2160    6.3446   -3.0596    4.6689   -3.1554    4.8574   12.2230  -64.5650  -76.8490
    1.2200    5.7446   -0.3596    6.0689   -1.7554    6.1574   40.2230  -42.5650  -48.8490
    1.2240    4.6446   -2.3596    4.3689   -1.4554    4.1574    8.2229  -60.5650  -62.8490
    1.2280    4.7446   -3.0596    4.8689    1.4446    5.7574   32.2230  -40.5650  -44.8490
    1.2320    5.0446   -3.5596    3.6689   -0.4554    3.8574   10.2230  -46.5650  -56.8490
    1.2360    2.8446   -5.2596    3.9689   -0.9554    4.8574   34.2230  -14.5650  -28.8490
    1.2400    4.1446   -4.7596    4.8689   -2.4554    4.3574    0.2229  -40.5650  -42.8490
    1.2440    2.9446   -3.4596    4.5689   -1.5554    4.3574    6.2229  -38.5650  -44.8490
    1.2480    3.8446   -3.0596    4.0689    1.8446    5.7574   28.2230  -20.5650  -24.8490
    1.2520    4.2446   -3.0596    4.7689    5.3446    5.9574    8.2229  -38.5650  -40.8490
    1.2560    4.2446   -0.5596    3.2689    7.5446    7.3574   10.2230  -28.5650  -32.8490
    1.2600    6.6446    1.4404   -1.0311    6.5446   10.0570   12.2230  -12.5650  -20.8490
    1.2640   14.8450   10.6400   -5.1311    6.6446    7.9574    2.2229  -14.5650  -10.8490
    1.2680   14.8450   12.0400   -8.8311    6.6446    1.6574    8.2229  -16.5650  -28.8490
    1.2720    7.3446    6.8404   -9.4311    5.4446   -3.8426   24.2230    5.4350  -10.8490
    1.2760   -9.9554   -8.9596   -0.0311    2.5446   -7.9426    0.2229  -16.5650  -24.8490
    1.2800  -16.6550  -15.7600    8.7689   -0.6554   -4.1426   -3.7771  -32.5650  -26.8490
    1.2840  -11.8550  -10.7600    9.6689    0.1446    1.5574   16.2230   -2.5650   11.1510
    1.2880   -3.0554   -6.6596    6.5689    0.2446    2.9574    0.2229  -16.5650   -8.8493
    1.2920   -1.3554   -7.1596    5.6689    1.1446    2.8574    4.2229  -10.5650   -4.8493
    1.2960   -1.0554   -5.4596    5.1689    2.8446    1.8574   16.2230   -2.5650    3.1507
    1.3000   -2.8554   -4.3596    5.9689    3.6446    1.9574   12.2230  -12.5650   -6.8493
    1.3040   -2.5554   -5.0596    6.0689    3.6446    3.4574   -5.7771  -30.5650  -34.8490
    1.3080   -3.0554   -5.5596    5.4689    3.0446    4.5574  -17.7770  -28.5650  -24.8490
    1.3120   -2.3554   -4.9596    5.0689    3.1446    4.5574   -7.7771  -14.5650  -10.8490
    1.3160   -2.4554   -4.1596    4.6689    3.1446    3.2574   -5.7771  -14.5650  -10.8490
    1.3200   -0.8554   -3.8596    5.6689    4.3446    4.1574   34.2230    9.4350  -12.8490
    1.3240   -0.2554   -3.6596    3.6689    1.8446    1.1574   12.2230   -6.5650  -18.8490
    1.3280   -1.8554   -5.2596    3.3689    2.0446    0.8574   10.2230  -16.5650  -28.8490
    1.3320   -2.3554   -4.6596    4.8689    2.3446    1.8574    4.2229   -8.5650  -26.8490
    1.3360   -0.4554   -3.9596    4.4689    1.9446    2.1574    8.2229   -8.5650   -4.8493
    1.3400   -1.1554   -1.8596    3.6689    0.3446    1.2574    2.2229  -14.5650  -10.8490
    1.3440   -0.2554   -0.6596    2.5689    3.4446    1.8574   12.2230   -0.5650   -2.8493
    1.3480   -0.6554   -2.1596    2.3689    4.5446    2.8574   18.2230    7.4350   -2.8493
    1.3520   -2.2554   -2.4596    2.1689    2.5446    0.2574    0.2229  -12.5650   -8.8493
    1.3560   -3.1554   -2.5596    3.1689    5.0446    1.1574    2.2229   -8.5650    3.1507
    1.3600   -1.2554   -1.0596    3.4689    3.5446    1.6574    6.2229    7.4350   15.1510
    1.3640   -2.4554   -3.0596    4.0689    4.7446    4.2574   26.2230   21.4350   19.1510
    1.3680   -3.1554   -2.8596    5.0689    4.2446    3.9574   26.2230   23.4350   11.1510
    1.3720   -4.4554   -3.9596    1.6689    3.6446    1.1574   10.2230   21.4350   -2.8493
    1.3760   -6.0554   -4.1596   -0.6311    4.3446   -1.9426    0.2229    3.4350   13.1510
    1.3800   -4.9554   -1.7596   -2.4311    9.1446   -0.3426   44.2230   51.4350   55.1510
    1.3840   -4.7554    1.9404   -3.4311    7.1446   -0.7426   32.2230   45.4350   51.1510
    1.3880   -4.7554    0.9404   -3.3311    6.7446   -2.5426   16.2230   39.4350   31.1510
    1.3920   -6.0554    0.2404   -3.2311    6.2446   -4.2426   18.2230   43.4350   31.1510
    1.3960   -6.6554    1.5404   -1.9311    5.7446   -3.4426   22.2230   55.4350   41.1510
    1.4000   -6.5554    1.2404   -1.3311    7.2446   -3.5426  -15.7770   23.4350   29.1510
    1.4040   -4.3554    2.6404   -0.6311    6.5446   -2.2426  -15.7770   19.4350   25.1510
    1.4080   -0.8554    1.8404    0.5689    6.2446   -1.7426  -13.7770   21.4350   23.1510
    1.4120    1.2446    2.1404    1.0689    3.8446   -0.4426  -15.7770   13.4350    5.1507
    1.4160    1.4446    1.2404    1.9689    3.2446    0.8574  -15.7770   13.4350   11.1510
    1.4200    1.0446    0.7404    0.4689    2.8446   -0.9426  -25.7770   -2.5650   -8.8493
    1.4240    0.9446    2.0404   -0.2311    3.4446   -1.1426   -5.7771    5.4350   -2.8493
    1.4280    1.7446   -0.4596    1.6689    2.8446   -1.0426  -21.7770  -18.5650  -22.8490
    1.4320    2.3446   -1.9596    2.6689    1.7446    0.2574   -1.7771   -4.5650  -14.8490
    1.4360    3.4446   -3.2596    3.1689    1.8446    0.5574  -11.7770  -24.5650  -46.8490
    1.4400    3.5446   -3.2596    2.7689    2.6446    0.5574   -1.7771  -28.5650  -40.8490
    1.4440    4.1446   -3.5596    2.7689    3.3446    2.4574    2.2229  -30.5650  -42.8490
    1.4480    3.9446   -6.0596    1.5689    3.9446    3.7574  -11.7770  -34.5650  -48.8490
    1.4520    4.4446   -5.4596    2.6689    6.6446    4.9574    8.2229  -26.5650  -48.8490
    1.4560    4.0446   -6.3596    2.7689    2.6446    2.9574    6.2229  -14.5650  -28.8490
    1.4600    3.6446   -4.8596    4.9689    3.4446    1.9574    4.2229  -24.5650  -30.8490
    1.4640    3.7446   -4.0596    5.7689    4.5446    1.7574    8.2229  -16.5650  -18.8490
    1.4680    5.3446   -4.3596    5.9689    5.2446    1.5574   -9.7771  -22.5650  -30.8490
    1.4720    3.4446   -5.0596    5.2689    5.5446    4.0574   -1.7771  -28.5650  -30.8490
    1.4760    3.9446   -2.6596    6.2689    5.3446    5.1574   12.2230  -14.5650  -22.8490
    1.4800    2.7446   -3.9596    5.0689    5.4446    5.1574    0.2229  -24.5650  -34.8490
    1.4840    2.2446   -6.7596    4.5689    3.6446    5.7574   -1.7771  -20.5650  -28.8490
    1.4880    3.6446   -6.5596    2.4689    2.8446    5.1574   -7.7771  -24.5650  -42.8490
    1.4920    2.8446   -6.4596    1.5689    5.2446    5.5574   -5.7771  -18.5650  -36.8490
    1.4960    1.5446   -6.2596    1.8689    6.6446    4.8574   -3.7771  -20.5650  -28.8490
    1.5000    0.9446   -6.0596    1.9689    5.1446    3.4574   -9.7771  -22.5650   -6.8493
    1.5040    1.6446   -2.5596    2.9689    5.1446    3.6574    0.2229  -14.5650  -20.8490
    1.5080    0.9446   -2.3596    1.5689    4.9446    2.6574   10.2230    5.4350   -6.8493
    1.5120   -1.0554   -2.8596    2.1689    5.6446    1.8574   -5.7771   -2.5650   -8.8493
    1.5160    0.1446   -2.2596    3.5689    6.9446    3.6574   32.2230   -4.5650   -0.8493
    1.5200    0.0446   -6.1596    5.5689    7.0446    5.6574   36.2230  -38.5650  -16.8490
    1.5240   -2.6554   -9.5596    7.1689    7.4446    9.0574   60.2230  -38.5650   -4.8493
    1.5280   -5.3554  -12.1600    6.1689   10.7450    9.7574   72.2230   -8.5650   37.1510
    1.5320   -6.3554  -10.8600    4.0689   15.6450    6.9574   56.2230   25.4350   59.1510
    1.5360  -11.9550   -4.9596   -1.6311   16.9450   -2.0426    8.2229  165.4400  211.1500
    1.5400  -18.7550    6.5404  -12.1310   20.1450  -16.1430 -121.7800  315.4400  367.1500
    1.5440  -27.6550   28.3400  -28.6310   21.8450  -35.1430 -277.7800  499.4300  521.1500
    1.5480  -35.8550   52.0400  -45.6310   20.7450  -56.0430 -459.7800  641.4300  661.1500
    1.5520  -40.9550   69.8400  -55.1310   18.1450  -71.4430 -631.7800  747.4300  767.1500
    1.5560  -46.4550   85.2400  -65.5310   13.6450  -87.3430 -727.7800  831.4300  793.1500
    1.5600  -40.2550  100.0400  -65.4310    3.0446  -89.0430 -627.7800  723.4300  541.1500
    1.5640  -16.4550   95.9400  -48.8310  -11.7550  -67.7430 -379.7800  485.4300  177.1500
    1.5680   13.5450   79.4400  -25.7310  -24.9550  -40.0430 -165.7800  147.4400 -124.8500
    1.5720   29.6450   53.3400   -3.7311  -28.4550  -14.5430   22.2230 -124.5600 -336.8500
    1.5760   36.2450   23.5400   10.3690  -24.6550    4.6574  138.2200 -258.5600 -382.8500
    1.5800   33.9450    0.3404   17.2690  -11.8550   17.8570  180.2200 -286.5600 -324.8500
    1.5840   22.8450  -18.3600   18.7690    0.0446   25.6570  204.2200 -244.5600 -230.8500
    1.5880   15.6450  -26.6600   18.9690    7.6446   27.8570  178.2200 -238.5600 -196.8500
    1.5920   11.5450  -30.0600   19.1690    9.8446   28.8570  182.2200 -212.5600 -172.8500
    1.5960    7.5446  -31.5600   16.8690    8.5446   26.5570  156.2200 -218.5600 -166.8500
    1.6000    8.5446  -31.0600   17.5690    9.3446   25.8570  150.2200 -204.5600 -148.8500
    1.6040    7.1446  -30.3600   16.7690    8.9446   25.5570  156.2200 -188.5600 -124.8500
    1.6080    6.6446  -28.8600   16.5690    6.9446   23.8570  134.2200 -184.5600 -134.8500
    1.6120    6.8446  -27.0600   16.3690    7.0446   23.3570  138.2200 -174.5600 -124.8500
    1.6160    6.8446  -26.9600   15.5690    7.4446   22.2570  116.2200 -158.5600 -118.8500
    1.6200    5.7446  -26.3600   15.2690    9.2446   20.9570  116.2200 -156.5600 -108.8500
    1.6240    5.8446  -25.5600   14.3690   12.5450   19.5570  108.2200 -154.5600 -104.8500
    1.6280    5.8446  -23.2600   13.9690   12.7450   16.9570  114.2200 -118.5600  -64.8490
    1.6320    4.9446  -20.9600   15.2690   12.5450   15.8570  102.2200 -120.5600  -88.8490
    1.6360    2.0446  -22.4600   15.1690   14.1450   16.0570   92.2230 -112.5600  -84.8490
    1.6400    1.5446  -19.6600   14.1690   12.8450   15.5570   96.2230  -92.5650  -70.8490
    1.6440    1.8446  -17.8600   12.5690   10.4450   11.8570   82.2230  -84.5650  -54.8490
    1.6480    2.7446  -15.9600   11.8690   10.3450   10.1570   60.2230  -90.5650  -62.8490
    1.6520    3.1446  -15.3600   10.4690    8.4446    9.7574   68.2230  -76.5650  -56.8490
    1.6560    3.1446  -13.8600    9.7689    7.8446    8.2574   58.2230  -70.5650  -46.8490
    1.6600    1.6446  -12.6600   11.2690    8.8446    9.7574   78.2230  -50.5650  -38.8490
    1.6640    0.5446  -13.1600    9.8689    7.6446    7.6574   58.2230  -42.5650  -28.8490
    1.6680    3.1446  -12.2600    9.3689    7.9446    6.5574   48.2230  -54.5650  -40.8490
    1.6720    1.4446  -10.6600    9.4689    8.1446    8.0574   54.2230  -46.5650  -38.8490
    1.6760    0.4446  -10.7600    7.8689    7.8446    7.0574   44.2230  -32.5650  -20.8490
    1.6800    0.9446   -7.7596    8.8689   10.3450    6.3574   38.2230  -38.5650  -36.8490
    1.6840    0.5446   -7.3596    9.9689    7.2446    6.6574   42.2230  -24.5650   -8.8493
    1.6880    0.1446   -4.8596    6.5689    7.0446    5.4574   30.2230  -18.5650   -2.8493
    1.6920    0.8446   -3.9596    5.1689    8.0446    4.8574   28.2230  -16.5650  -14.8490
    1.6960    3.4446   -5.1596    6.3689    8.7446    6.0574   42.2230  -10.5650  -16.8490
    1.7000    1.0446   -5.1596    6.0689    7.4446    5.0574   18.2230  -24.5650  -16.8490
    1.7040   -0.5554   -3.6596    7.3689   12.1450    7.0574   32.2230  -10.5650   -4.8493
    1.7080    2.4446   -2.0596    4.1689   12.6450    7.3574   32.2230    1.4350   -0.8493
    1.7120    7.6446    2.0404    0.6689   10.8450    8.3574   34.2230    9.4350    7.1507
    1.7160   17.3450    9.3404   -3.2311   11.1450    8.4574   14.2230   -6.5650  -10.8490
    1.7200   17.8450   12.1400   -9.6311    9.8446    3.7574   28.2230   17.4350   15.1510
    1.7240   12.7450    9.3404  -13.1310    7.3446   -4.3426    6.2229    5.4350   13.1510
    1.7280   -2.4554   -2.3596   -5.0311    5.9446  -10.1430    0.2229    3.4350    9.1507
    1.7320  -13.8550  -11.5600    6.2689    4.1446   -8.5426   24.2230   21.4350   21.1510
    1.7360  -10.9550  -10.8600    6.9689    1.1446   -5.3426   14.2230   19.4350   27.1510
    1.7400   -1.7554   -3.4596    5.3689    2.4446   -1.2426    6.2229   13.4350   17.1510
    1.7440   -0.2554    0.3404    4.8689    3.7446   -1.0426    8.2229   35.4350   53.1510
    1.7480   -0.0554    1.8404    5.1689    3.0446   -1.3426  -11.7770   19.4350   35.1510
    1.7520   -0.7554    1.0404    5.6689    2.7446   -1.8426  -11.7770   25.4350   29.1510
    1.7560   -1.9554    0.6404    3.6689    2.3446   -3.2426  -13.7770   31.4350   37.1510
    1.7600   -3.1554   -1.0596    1.4689    2.2446   -4.9426  -23.7770   31.4350   27.1510
    1.7640   -3.0554   -0.2596    1.5689    3.6446   -3.8426  -13.7770   39.4350   35.1510
    1.7680   -1.3554    1.7404    2.1689    5.9446   -2.8426    0.2229   67.4350   57.1510
    1.7720   -0.5554    3.6404    1.7689    6.1446   -3.5426  -17.7770   53.4350   49.1510
    1.7760   -1.5554    4.1404    0.9689    8.5446   -1.1426  -27.7770   43.4350   37.1510
    1.7800   -1.9554    2.6404   -2.1311    6.3446   -1.9426  -39.7770   39.4350   31.1510
    1.7840   -0.5554    2.5404   -0.3311    6.8446   -2.1426  -27.7770   35.4350   33.1510
    1.7880   -0.9554    0.9404    1.7689   10.2450   -1.0426    6.2229   77.4350   63.1510
    1.7920   -0.0554    3.4404    1.0689    9.0446   -2.1426  -15.7770   59.4350   57.1510
    1.7960   -0.6554    4.5404   -0.8311    7.3446   -2.5426  -29.7770   49.4350   41.1510
    1.8000   -1.9554    2.2404   -1.2311    7.1446   -2.0426  -23.7770   53.4350   41.1510
    1.8040   -2.6554    1.0404   -1.9311    6.2446   -2.6426  -19.7770   69.4350   55.1510
    1.8080   -2.4554    2.6404   -3.1311    6.3446   -3.8426  -41.7770   37.4350   25.1510
    1.8120   -2.1554    3.7404   -0.4311    7.5446   -1.4426  -15.7770   55.4350   35.1510
    1.8160   -2.3554    0.9404    0.8689    5.8446   -2.1426  -21.7770   55.4350   55.1510
    1.8200   -0.9554    2.3404    0.6689    7.4446   -2.5426  -21.7770   43.4350   61.1510
    1.8240   -2.1554    2.1404    1.9689    9.1446   -0.4426  -25.7770   29.4350   39.1510
    1.8280   -3.1554   -0.2596    1.9689    7.1446    2.2574  -13.7770   39.4350   45.1510
    1.8320   -3.1554   -1.3596    1.5689    7.5446    3.7574  -11.7770   15.4350   17.1510
    1.8360   -2.4554   -2.3596    3.2689    8.5446    6.3574   14.2230   33.4350   37.1510
    1.8400   -2.7554   -2.8596    3.2689    9.0446    6.2574   26.2230   23.4350   37.1510
    1.8440   -0.2554   -4.8596    4.3689    8.4446    5.1574    8.2229  -12.5650   -6.8493
    1.8480   -0.4554   -8.3596    5.3689    8.6446    5.9574   28.2230   -6.5650   19.1510
    1.8520    1.7446   -7.3596    6.9689    6.3446    5.6574   12.2230  -36.5650  -16.8490
    1.8560    0.6446   -6.7596    7.6689    3.9446    7.1574   40.2230  -28.5650  -12.8490
    1.8600    1.8446   -5.7596   10.9690    4.7446    8.1574   34.2230  -42.5650  -62.8490
    1.8640    0.4446   -9.1596    9.7689    5.0446   10.8570   68.2230  -12.5650  -36.8490
    1.8680    3.6446   -9.4596    7.9689    4.2446    9.2574   26.2230  -54.5650  -58.8490
    1.8720    3.5446  -10.3600    9.1689    3.4446    9.0574   12.2230  -70.5650  -62.8490
    1.8760    3.5446   -8.2596   10.8690    3.0446   10.5570   48.2230  -48.5650  -44.8490
    1.8800    4.5446   -7.7596   11.9690    4.0446   11.4570   40.2230  -68.5650  -70.8490
    1.8840    4.0446   -7.6596   13.4690    4.3446   12.2570   70.2230  -40.5650  -50.8490
    1.8880    5.9446   -8.5596   10.6690    4.0446   11.8570   54.2230  -48.5650  -72.8490
    1.8920    5.7446   -9.1596    8.2689    3.2446    9.2574   40.2230  -72.5650  -88.8490
    1.8960    3.8446   -8.1596    9.0689    4.9446    9.1574   46.2230  -48.5650  -66.8490
    1.9000    3.3446   -6.7596    8.6689    4.1446   10.0570   56.2230  -34.5650  -42.8490
    1.9040    5.7446   -5.3596    8.8689    4.0446    8.7574   34.2230  -40.5650  -58.8490
    1.9080    4.8446   -6.0596    7.9689    3.6446    8.5574   38.2230  -40.5650  -54.8490
    1.9120    3.6446   -4.7596    7.9689    3.5446    7.3574   26.2230  -38.5650  -42.8490
    1.9160    1.3446   -5.1596    5.9689    4.8446    7.6574   20.2230  -40.5650  -52.8490
    1.9200    1.3446   -5.3596    5.2689    5.9446    7.4574   14.2230  -44.5650  -54.8490
    1.9240   -0.4554   -5.4596    5.2689    7.2446    8.8574   20.2230  -32.5650  -52.8490
    1.9280   -0.8554   -6.3596    4.1689    4.5446    7.8574   24.2230  -22.5650  -40.8490
    1.9320   -0.0554   -6.1596    6.9689    5.7446    7.0574   32.2230  -14.5650  -14.8490
    1.9360   -0.4554   -5.0596    7.9689    7.1446    6.7574   14.2230  -20.5650  -12.8490
    1.9400   -0.6554   -5.5596    8.0689    7.6446    8.1574   30.2230  -10.5650  -12.8490
    1.9440   -1.4554   -7.0596    6.1689    6.2446    7.5574   14.2230  -20.5650  -22.8490
    1.9480   -1.9554   -6.3596    6.2689    6.7446    7.3574   12.2230  -18.5650  -20.8490
    1.9520   -1.0554   -3.6596    7.3689    8.9446    7.6574   14.2230   -8.5650  -12.8490
    1.9560   -1.9554   -4.9596    4.4689    9.9446    6.3574    6.2229  -14.5650  -20.8490
    1.9600   -5.7554   -7.3596    5.2689   10.0450    5.3574    2.2229  -12.5650  -14.8490
    1.9640   -7.2554   -5.3596    4.2689    9.7446    3.6574   -5.7771  -14.5650  -16.8490
    1.9680   -7.7554   -3.9596    4.8689    9.3446    3.6574    2.2229  -12.5650  -12.8490
    1.9720   -8.7554   -3.5596    5.7689    9.7446    3.7574    2.2229  -12.5650  -34.8490
    1.9760  -12.6550   -7.4596    4.1689    6.7446    3.1574   12.2230   -2.5650  -10.8490
    1.9800  -10.8550   -5.7596    2.2689    5.7446    1.7574    2.2229   -8.5650  -20.8490
    1.9840  -10.3550   -5.4596    3.8689    7.4446    1.9574    4.2229   -6.5650   -8.8493
    1.9880   -7.2554   -1.8596    3.4689    8.6446    4.0574   18.2230    3.4350    1.1507
    1.9920   -6.8554   -1.1596    2.8689    6.2446    3.0574    2.2229  -10.5650  -20.8490
    1.9960   -6.7554   -3.0596    3.5689    5.8446    2.9574   12.2230    3.4350   -8.8493
    2.0000   -6.6554   -2.8596    3.5689    4.8446    3.3574   16.2230   -8.5650  -26.8490
    2.0040   -5.0554   -2.5596    4.7689    4.6446    2.3574    0.2229    7.4350  -12.8490
    2.0080   -4.6554   -3.1596    4.7689    6.8446    4.8574   18.2230   -0.5650    1.1507
    2.0120   -4.8554   -3.7596    3.5689    3.4446    3.1574  -15.7770  -14.5650  -24.8490
    2.0160   -6.0554   -4.6596    6.6689    3.4446    4.5574    4.2229   -4.5650  -10.8490
    2.0200   -7.3554   -4.9596    4.7689    4.1446    3.8574   -7.7771   -4.5650   -4.8493
    2.0240   -3.6554   -1.4596    4.5689    7.1446    4.7574    8.2229   -8.5650   -6.8493
    2.0280   -5.3554   -4.8596    2.6689    5.8446    4.5574    8.2229    7.4350   -2.8493
    2.0320   -5.5554   -3.6596    4.0689    6.0446    4.3574    6.2229   -2.5650  -16.8490
    2.0360   -3.6554   -2.6596    4.1689    8.0446    5.3574   20.2230   11.4350   -2.8493
    2.0400   -5.9554   -3.1596    4.3689    6.6446    5.0574   16.2230    5.4350   11.1510
    2.0440   -5.0554   -1.6596    2.8689    8.0446    4.6574   28.2230    9.4350    7.1507
    2.0480   -6.4554   -1.5596    0.8689    9.2446    4.4574   22.2230   17.4350   19.1510
    2.0520   -7.1554   -0.5596    0.8689   10.9450    3.3574   22.2230   27.4350   27.1510
    2.0560   -8.4554    0.1404    0.1689   10.0450    2.9574   12.2230   27.4350   35.1510
    2.0600   -8.4554    0.8404   -0.1311    8.1446    2.3574   28.2230   33.4350   35.1510
    2.0640   -6.7554    1.4404   -0.6311    7.1446    0.1574   16.2230   27.4350   29.1510
    2.0680   -5.4554    2.6404   -0.9311    9.4446    0.8574   26.2230   49.4350   31.1510
    2.0720   -5.2554    2.0404   -0.9311   10.0450   -1.0426   18.2230   35.4350   11.1510
    2.0760   -5.6554    0.9404   -0.4311   10.2450   -1.8426   22.2230   55.4350   39.1510
    2.0800   -3.8554    1.2404    1.2689   10.2450   -3.2426  -23.7770   15.4350   19.1510
    2.0840   -7.0554   -2.9596    3.3689    9.2446    1.0574  -11.7770   39.4350   43.1510
    2.0880   -5.1554   -1.4596    4.0689    7.3446    2.6574  -37.7770   -2.5650   -0.8493
    2.0920   -4.0554   -2.0596    4.1689    4.9446    3.8574  -25.7770   13.4350    3.1507
    2.0960   -1.0554   -1.3596    4.6689    5.2446    3.1574  -25.7770    9.4350   -2.8493
    2.1000   -0.1554   -0.2596    4.4689    3.3446    1.4574  -39.7770  -10.5650  -22.8490
    2.1040    2.0446    0.3404    5.2689   -0.3554    2.4574  -33.7770   -8.5650  -26.8490
    2.1080    2.5446   -0.0596    5.7689    0.6446    4.4574  -25.7770  -20.5650  -40.8490
    2.1120    1.7446   -3.3596    4.6689    3.0446    5.6574   -9.7771  -14.5650  -34.8490
    2.1160    2.3446   -2.5596    5.0689    3.1446    5.8574  -19.7770  -28.5650  -44.8490
    2.1200    2.3446   -3.4596    5.8689    3.4446    5.6574   -3.7771  -24.5650  -28.8490
    2.1240    3.2446   -3.6596    7.3689    2.5446    5.6574   -1.7771  -26.5650  -46.8490
    2.1280    3.7446   -5.1596    7.7689    1.2446    4.4574   -1.7771  -38.5650  -56.8490
    2.1320    3.8446   -6.1596    7.2689    1.6446    5.6574   24.2230   -0.5650  -22.8490
    2.1360    6.4446   -4.4596    5.9689   -1.3554    3.5574    2.2229  -28.5650  -34.8490
    2.1400    5.6446   -3.0596    6.7689    0.3446    5.2574   10.2230  -18.5650  -44.8490
    2.1440    3.5446   -6.5596    4.1689   -1.3554    3.8574    0.2229  -28.5650  -50.8490
    2.1480    4.0446   -2.8596    6.5689    0.2446    2.9574   -1.7771  -10.5650  -38.8490
    2.1520    3.7446   -0.4596    6.3689    3.8446    4.5574   -5.7771  -24.5650  -34.8490
    2.1560    3.8446   -2.9596    4.3689    6.5446    6.8574  -11.7770  -20.5650  -42.8490
    2.1600    5.4446   -3.5596    2.2689    6.4446    6.3574  -21.7770  -32.5650  -54.8490
    2.1640   10.4450    1.0404   -0.7311    6.1446    8.8574  -17.7770  -22.5650  -34.8490
    2.1680   18.0450    8.8404   -5.1311    6.8446    7.9574   -5.7771  -12.5650  -22.8490
    2.1720   17.4450   11.1400  -10.8310    7.3446    3.1574    0.2229  -14.5650  -36.8490
    2.1760    8.9446    5.1404  -10.1310    6.5446   -3.0426   12.2230   -2.5650  -20.8490
    2.1800   -5.4554   -7.9596    1.2689    3.6446   -6.3426   10.2230   -0.5650  -10.8490
    2.1840  -12.6550  -15.2600    8.7689    1.9446   -4.0426   -7.7771  -22.5650  -12.8490
    2.1880   -7.3554   -9.4596    9.9689    2.9446    1.1574   10.2230    3.4350    1.1507
    2.1920   -0.8554   -4.2596    7.4689    1.8446    4.4574   18.2230   -2.5650   -6.8493
    2.1960    0.6446   -7.5596    6.8689    3.5446    7.7574   20.2230  -30.5650  -30.8490
    2.2000   -1.8554  -12.9600    3.7689    3.0446    9.5574   30.2230  -44.5650  -18.8490
    2.2040   -1.5554  -13.0600    6.7689    7.8446   12.1570   70.2230  -44.5650   -8.8493
    2.2080   -2.7554  -13.2600    5.3689    9.8446   12.1570   94.2230    5.4350   23.1510
    2.2120   -6.2554   -9.1596    0.9689   12.8450    5.1574   46.2230   67.4350   91.1510
    2.2160  -12.1550   -0.6596   -7.9311   14.8450   -6.1426  -47.7770  193.4400  255.1500
    2.2200  -23.1550   14.1400  -20.8310   17.4450  -24.2430 -213.7800  363.4400  425.1500
    2.2240  -31.0550   38.2400  -32.6310   20.9450  -45.1430 -361.7800  555.4300  601.1500
    2.2280  -37.9550   58.4400  -47.3310   15.4450  -64.7430 -581.7800  651.4300  695.1500
    2.2320  -42.6550   79.1400  -59.1310   12.8450  -81.8430 -723.7800  765.4300  781.1500
    2.2360  -43.4550   95.9400  -68.8310    4.6446  -92.4430 -731.7800  765.4300  663.1500
    2.2400  -26.6550  100.1400  -60.6310   -8.3554  -80.9430 -557.7800  567.4300  355.1500
    2.2440    2.2446   89.4400  -37.3310  -19.6550  -56.0430 -339.7800  259.4400    5.1507
    2.2480   20.6450   61.6400  -15.2310  -24.1550  -27.5430  -95.7770   -4.5650 -230.8500
    2.2520   34.4450   34.1400    3.0689  -24.6550   -4.2426   74.2230 -202.5600 -360.8500
    2.2560   36.8450    9.2404   13.9690  -17.2550   12.9570  172.2200 -254.5600 -338.8500
    2.2600   28.7450  -13.3600   19.4690   -5.9554   22.9570  204.2200 -240.5600 -270.8500
    2.2640   16.9450  -25.1600   19.1690    0.1446   25.4570  182.2200 -226.5600 -206.8500
    2.2680   11.0450  -29.4600   18.3690    6.1446   26.2570  176.2200 -222.5600 -172.8500
    2.2720    7.9446  -32.8600   17.9690    5.1446   26.6570  178.2200 -198.5600 -148.8500
    2.2760    4.6446  -35.9600   15.8690    4.1446   24.5570  170.2200 -184.5600 -122.8500
    2.2800    6.0446  -31.3600   16.4690    4.2446   23.7570  172.2200 -182.5600 -134.8500
    2.2840    5.1446  -30.6600   16.7690    4.3446   24.5570  178.2200 -150.5600 -116.8500
    2.2880    6.4446  -30.6600   14.9690    4.7446   21.0570  136.2200 -170.5600 -124.8500
    2.2920    5.0446  -30.3600   12.9690    6.1446   20.2570  130.2200 -154.5600 -106.8500
    2.2960    6.2446  -27.2600   13.6690    7.4446   18.0570  120.2200 -148.5600 -106.8500
    2.3000    4.8446  -25.3600   14.1690    5.2446   18.8570  144.2200 -110.5600  -88.8490
    2.3040    4.3446  -26.8600   14.9690    3.9446   16.8570  114.2200 -130.5600  -98.8490
    2.3080    4.6446  -25.9600   12.0690    4.1446   15.1570  116.2200 -106.5600  -60.8490
    2.3120    2.7446  -23.0600    9.3689    4.8446   12.1570   94.2230 -108.5600  -72.8490
    2.3160    3.9446  -20.1600    9.4689    5.4446   11.8570   86.2230 -106.5600  -68.8490
    2.3200    2.0446  -19.6600    8.5689    5.6446   12.0570   90.2230  -68.5650  -40.8490
    2.3240    2.0446  -17.7600    8.6689    7.1446   12.0570   60.2230  -92.5650  -66.8490
    2.3280    0.7446  -17.7600    7.9689    5.9446   11.5570   76.2230  -66.5650  -42.8490
    2.3320    0.5446  -15.5600    7.6689    5.3446   10.2570   76.2230  -62.5650  -42.8490
    2.3360    3.2446  -12.8600    7.2689    6.4446    9.8574   98.2230  -34.5650  -14.8490
    2.3400    4.0446  -12.7600    5.0689    5.6446    7.9574   68.2230  -56.5650  -40.8490
    2.3440    2.2446  -13.2600    3.9689    5.5446    6.6574   58.2230  -50.5650  -46.8490
    2.3480    2.7446  -11.2600    1.0689    3.2446    4.7574   44.2230  -48.5650  -34.8490
    2.3520    4.2446   -8.2596    1.9689    4.2446    4.1574   52.2230  -34.5650  -20.8490
    2.3560    2.5446   -8.1596    2.5689    1.5446    2.0574   48.2230  -28.5650  -20.8490
    2.3600    2.7446   -7.8596    1.3689    2.8446    1.6574   48.2230  -24.5650  -10.8490
    2.3640    3.7446   -6.0596    1.8689    3.7446    1.2574   34.2230  -32.5650  -28.8490
    2.3680    3.3446   -4.4596    0.5689    1.5446    2.2574   36.2230  -28.5650  -20.8490
    2.3720    3.4446   -1.3596    1.7689    3.4446    2.3574   34.2230  -14.5650    1.1507
    2.3760    1.1446   -1.8596    2.4689    1.3446    2.2574   30.2230  -28.5650  -10.8490
    2.3800    0.6446   -3.4596    1.7689    1.4446    1.6574   32.2230   -6.5650   -0.8493
    2.3840    2.1446   -2.4596    0.4689    1.0446   -0.4426   32.2230  -14.5650  -14.8490
    2.3880    3.7446   -0.3596   -1.1311    2.1446   -2.3426   24.2230  -14.5650  -10.8490
    2.3920    0.2446    0.2404   -1.9311    2.9446   -2.5426   34.2230    1.4350   17.1510
    2.3960   -0.9554    0.4404   -2.4311    3.9446   -1.8426   26.2230    7.4350   15.1510
    2.4000    1.8446   -1.0596   -1.9311    1.8446   -3.0426   -1.7771  -10.5650    9.1507
    2.4040    0.8446    0.0404   -0.9311    0.8446   -2.7426   22.2230    7.4350   13.1510
    2.4080   -0.9554   -2.4596   -2.0311   -0.9554   -4.6426    6.2229   15.4350   31.1510
    2.4120   -0.3554   -0.0596   -0.2311    1.6446   -2.7426   12.2230   -6.5650  -22.8490
    2.4160   -3.5554   -2.3596   -1.6311    0.8446   -3.2426   10.2230   21.4350   13.1510
    2.4200   -1.6554   -2.4596   -1.8311   -0.6554   -3.9426    0.2229    7.4350    1.1507
    2.4240   -2.0554   -3.1596   -1.3311    3.5446   -2.4426   14.2230   33.4350   19.1510
    2.4280   -2.8554   -2.0596   -4.5311    5.1446   -3.6426   -5.7771   29.4350   27.1510
    2.4320   -0.8554    1.5404   -2.0311    5.9446   -3.3426   -1.7771   23.4350   17.1510
    2.4360   -1.8554    1.7404   -1.4311    6.1446   -3.9426   -7.7771   27.4350   25.1510
    2.4400   -2.4554    1.9404   -0.5311    6.8446   -4.3426  -19.7770   37.4350   31.1510
    2.4440   -2.7554    0.3404    1.2689    7.0446   -4.8426  -19.7770   37.4350   47.1510
    2.4480   -2.8554    2.8404    0.4689    4.4446   -5.2426  -29.7770   29.4350   33.1510
    2.4520   -4.0554    2.7404    0.3689    4.4446   -4.6426  -15.7770   49.4350   37.1510
    2.4560   -4.0554    1.3404   -2.2311    1.9446   -5.8426  -31.7770   29.4350   33.1510
    2.4600   -3.9554    1.0404   -2.4311    1.4446   -5.7426  -21.7770   39.4350   15.1510
    2.4640   -3.2554    1.8404   -3.2311    2.9446   -5.4426  -29.7770   35.4350   25.1510
    2.4680   -1.0554    3.0404   -5.4311    4.5446   -4.3426  -35.7770   33.4350   27.1510
    2.4720   -3.0554    3.9404   -4.8311    4.8446   -2.2426  -25.7770   39.4350   39.1510
    2.4760   -3.5554    4.9404   -3.1311    4.9446   -2.0426  -25.7770   49.4350   33.1510
    2.4800   -5.8554    3.5404   -2.8311    3.1446   -2.1426  -37.7770   29.4350   17.1510
    2.4840   -5.0554    3.6404   -3.7311    4.1446   -1.4426  -35.7770   45.4350   25.1510
    2.4880   -5.5554    2.6404   -2.9311    3.1446   -0.8426  -37.7770   29.4350   39.1510
    2.4920   -4.6554    2.4404   -3.1311    3.8446   -3.1426  -47.7770   27.4350   39.1510
    2.4960   -2.6554    2.6404   -4.1311    6.2446   -2.6426  -17.7770   37.4350   33.1510
    2.5000   -2.5554    1.4404   -2.3311    5.0446   -2.2426  -13.7770   33.4350   37.1510
    2.5040   -2.8554    1.7404   -2.4311    4.8446   -0.8426   -5.7771   25.4350   25.1510
    2.5080   -4.3554    0.6404   -3.5311    3.7446    0.4574   -9.7771   19.4350   29.1510
    2.5120   -2.6554    0.0404   -4.0311    2.2446    0.1574  -23.7770   -2.5650   13.1510
    2.5160   -3.2554    0.0404   -1.2311    1.7446    1.6574   -5.7771    7.4350   31.1510
    2.5200   -0.7554   -1.6596    1.0689    1.4446    4.0574   10.2230    5.4350   11.1510
    2.5240   -0.8554   -3.6596    2.5689    4.0446    7.1574   28.2230   -2.5650   15.1510
    2.5280   -2.0554   -3.9596    3.3689    4.0446    8.7574   24.2230  -20.5650   -4.8493
    2.5320   -2.1554   -5.8596    2.2689    5.4446    8.1574   20.2230  -30.5650  -24.8490
    2.5360   -0.0554   -6.1596    4.4689    6.0446    9.0574   28.2230  -28.5650  -34.8490
    2.5400    2.2446   -7.6596    6.4689    5.6446   10.5570   26.2230  -52.5650  -46.8490
    2.5440    2.7446   -7.2596    5.3689    4.2446   11.4570   34.2230  -44.5650  -38.8490
    2.5480    3.7446   -6.6596    4.6689    4.2446   10.1570   26.2230  -58.5650  -58.8490
    2.5520    2.1446   -8.0596    3.9689    0.9446    9.2574   40.2230  -52.5650  -50.8490
    2.5560    4.4446   -8.9596    4.9689    0.4446    8.8574   44.2230  -62.5650  -68.8490
    2.5600    3.7446   -8.7596    4.7689   -0.8554    7.3574   18.2230  -72.5650  -72.8490
    2.5640    6.4446   -7.2596    6.5689   -0.6554    8.5574   36.2230  -70.5650  -88.8490
    2.5680    3.6446   -9.1596    5.4689   -0.7554    7.5574   38.2230  -54.5650  -80.8490
    2.5720    4.4446   -6.4596    6.1689   -0.8554    7.1574   36.2230  -50.5650  -68.8490
    2.5760    3.8446   -5.9596    6.3689   -0.4554    5.6574   18.2230  -66.5650  -78.8490
    2.5800    2.9446   -7.5596    6.5689    0.6446    5.1574   24.2230  -58.5650  -66.8490
    2.5840    4.0446   -5.5596    5.0689    1.6446    4.9574   22.2230  -50.5650  -52.8490
    2.5880    4.0446   -4.0596    3.6689    2.5446    4.5574   28.2230  -30.5650  -30.8490
    2.5920    5.7446   -3.6596    6.0689    3.7446    3.7574   20.2230  -58.5650  -74.8490
    2.5960    1.7446   -4.9596    6.4689    4.0446    4.4574   44.2230  -10.5650  -24.8490
    2.6000    0.9446   -5.1596    4.7689    3.3446    1.8574   12.2230  -38.5650  -48.8490
    2.6040    0.5446   -5.6596    5.5689    5.4446    2.9574   28.2230  -26.5650  -42.8490
    2.6080    0.3446   -5.7596    3.8689    6.2446    3.4574    8.2229  -24.5650  -28.8490
    2.6120    3.0446   -4.8596    3.8689    7.9446    6.4574   16.2230  -28.5650  -34.8490
    2.6160    4.6446   -2.4596   -0.0311    7.8446    8.6574   -1.7771  -26.5650  -32.8490
    2.6200   13.4450    6.4404   -4.6311    9.2446   11.4570   -1.7771  -18.5650  -30.8490
    2.6240   15.2450    9.9404  -10.7310    7.3446    6.9574  -11.7770  -24.5650  -36.8490
    2.6280    9.4446    6.5404  -12.8310    6.1446    0.6574    2.2229  -16.5650  -18.8490
    2.6320   -4.7554   -4.4596   -4.8311    4.9446   -4.3426    6.2229   -6.5650    5.1507
    2.6360  -17.6550  -14.5600    6.6689    1.9446   -4.1426  -21.7770  -34.5650  -26.8490
    2.6400  -16.6550  -15.3600   10.4690   -0.1554    0.7574   -3.7771  -26.5650  -42.8490
    2.6440  -11.3550  -11.1600    8.3689    1.5446    4.2574   -1.7771  -14.5650  -34.8490
    2.6480   -5.7554   -7.8596    6.1689    1.2446    5.5574   10.2230   -0.5650   -8.8493
    2.6520   -4.8554   -6.6596    6.0689    2.8446    4.8574   12.2230   -2.5650   -0.8493
    2.6560   -5.3554   -7.2596    4.1689    0.9446    3.5574   -9.7771  -28.5650  -20.8490
    2.6600   -6.1554   -4.6596    3.7689    0.9446    3.8574  -23.7770  -32.5650  -34.8490
    2.6640   -6.2554   -4.7596    3.7689    1.2446    4.7574   -3.7771   -6.5650   -4.8493
    2.6680   -4.4554   -5.2596    4.5689    2.4446    5.1574   -7.7771   -4.5650    1.1507
    2.6720   -6.5554   -7.5596    4.9689    2.2446    4.6574  -21.7770  -24.5650   -8.8493
    2.6760   -7.9554   -6.7596    4.4689    1.2446    4.5574   -1.7771   -4.5650   -8.8493
    2.6800   -5.2554   -5.5596    4.4689    1.2446    3.8574   -9.7771  -24.5650  -18.8490
    2.6840   -4.7554   -6.5596    4.9689    1.9446    4.5574   -1.7771  -20.5650  -20.8490
    2.6880   -3.3554   -7.5596    3.4689    3.7446    4.5574    8.2229    1.4350   -6.8493
    2.6920   -2.4554   -4.9596    2.3689    2.0446    3.6574   -9.7771  -18.5650  -20.8490
    2.6960   -3.7554   -2.3596    3.1689    2.1446    3.2574    8.2229    7.4350  -10.8490
    2.7000   -4.2554   -4.3596    2.9689    1.2446    3.5574  -15.7770  -12.5650  -18.8490
    2.7040   -4.2554   -3.3596    3.8689    3.8446    4.6574  -15.7770  -16.5650  -14.8490
    2.7080   -3.7554   -3.1596    2.8689    6.5446    7.9574   10.2230    5.4350    1.1507
    2.7120   -3.5554   -4.5596    2.8689    6.2446    6.9574  -17.7770  -22.5650   -8.8493
    2.7160   -3.2554   -5.8596    4.0689    6.0446    7.5574    4.2229    3.4350    3.1507
    2.7200   -4.2554   -4.3596    4.9689    4.3446    6.3574    2.2229    7.4350    3.1507
    2.7240   -4.2554   -1.6596    5.7689    4.3446    6.6574   20.2230    3.4350   -8.8493
    2.7280   -5.2554   -3.0596    2.9689    4.1446    4.3574   20.2230   -0.5650   -4.8493
    2.7320   -5.9554   -4.3596    0.2689    7.0446    1.9574    8.2229   -2.5650   -4.8493
    2.7360   -7.5554   -3.7596   -0.3311    6.7446    2.1574   24.2230   29.4350   27.1510
    2.7400   -8.7554   -3.8596   -0.9311    4.1446    0.2574   12.2230   13.4350   29.1510
    2.7440   -9.9554   -2.5596   -1.1311    4.5446   -1.7426   14.2230   21.4350   31.1510
    2.7480   -8.4554    0.4404   -2.6311    2.6446   -2.2426   10.2230   23.4350   19.1510
    2.7520   -7.1554    0.3404   -1.6311    3.5446   -2.7426   10.2230   35.4350   33.1510
    2.7560   -6.7554    0.7404   -1.4311    1.4446   -3.9426    2.2229   37.4350   25.1510
    2.7600   -3.3554    2.8404   -0.8311    0.8446   -3.7426   18.2230   45.4350   43.1510
    2.7640   -4.4554    2.3404   -2.7311    0.1446   -5.3426    6.2229   35.4350   39.1510
    2.7680   -2.9554    2.7404   -1.8311    1.4446   -3.3426  -21.7770    9.4350   13.1510
    2.7720   -0.9554    0.6404    0.1689    1.0446   -0.9426  -37.7770   -2.5650   -4.8493
    2.7760    0.6446    1.0404    0.8689    0.1446   -1.2426  -43.7770    3.4350   15.1510
    2.7800    1.7446    2.4404    0.4689   -3.4554   -2.0426  -41.7770  -10.5650   -6.8493
    2.7840    1.4446    1.7404    0.5689   -1.5554   -1.5426  -39.7770  -20.5650  -26.8490
    2.7880    0.0446    1.0404    0.6689   -4.0554   -1.6426  -41.7770  -12.5650  -26.8490
    2.7920    1.2446    1.4404    2.2689   -5.6554   -0.5426  -21.7770   -0.5650  -22.8490
    2.7960    1.2446    2.0404    1.2689   -6.5554   -0.7426  -29.7770  -12.5650  -26.8490
    2.8000    2.7446    2.6404    0.9689   -4.7554   -0.1426  -21.7770  -26.5650  -36.8490
    2.8040    5.7446    2.8404    1.9689   -3.8554    0.2574  -29.7770  -32.5650  -40.8490
    2.8080    5.7446   -0.5596    1.9689   -3.9554    1.4574  -25.7770  -32.5650  -34.8490
    2.8120    4.1446   -3.1596    2.9689   -2.4554    2.1574   -5.7771  -22.5650  -26.8490
    2.8160    7.0446   -1.1596    3.6689   -4.0554    1.9574   -7.7771  -30.5650  -42.8490
    2.8200    5.4446   -1.0596    3.4689   -6.2554    1.8574   -1.7771  -28.5650  -40.8490
    2.8240    4.3446   -3.1596    1.6689   -7.7554   -0.2426  -21.7770  -40.5650  -52.8490
    2.8280    4.3446   -0.8596    2.7689   -7.9554    0.0574   -7.7771  -30.5650  -50.8490
    2.8320    4.1446   -0.5596    2.5689   -8.8554   -0.7426  -13.7770  -30.5650  -34.8490
    2.8360    6.3446   -0.6596    3.4689   -7.2554   -0.2426  -11.7770  -28.5650  -36.8490
    2.8400    4.1446   -0.3596    3.0689   -6.9554   -1.2426    4.2229  -22.5650  -20.8490
    2.8440    6.7446    2.2404    2.6689   -5.6554   -2.1426   -9.7771  -34.5650  -26.8490
    2.8480    4.7446    0.4404    0.6689   -5.7554   -1.0426    0.2229  -20.5650  -24.8490
    2.8520    3.3446    0.1404    0.9689   -5.9554   -0.3426    0.2229  -20.5650  -26.8490
    2.8560    3.7446   -1.6596    1.3689   -6.8554   -0.7426  -17.7770  -40.5650  -40.8490
    2.8600    1.9446   -1.9596    1.8689   -5.8554   -1.6426  -11.7770  -28.5650  -18.8490
    2.8640    3.5446   -0.6596    2.2689   -3.3554   -1.7426   -7.7771  -20.5650  -18.8490
    2.8680    4.9446    1.8404    2.3689   -2.1554    0.2574   10.2230   -2.5650   -4.8493
    2.8720    4.8446    1.0404    0.5689   -2.2554   -0.9426    4.2229    5.4350   15.1510
    2.8760    2.7446    0.5404    1.9689   -3.5554   -2.1426  -19.7770  -32.5650  -28.8490
    2.8800    0.8446   -1.4596    2.6689   -4.6554   -0.3426    0.2229  -36.5650  -28.8490
    2.8840   -0.6554   -5.3596    4.1689   -3.2554    3.9574   20.2230  -34.5650  -10.8490
    2.8880   -1.8554   -9.0596    7.2689   -0.1554    8.4574   54.2230  -42.5650    5.1507
    2.8920   -2.9554  -10.6600    6.4689    2.3446    9.5574   74.2230  -34.5650   13.1510
    2.8960   -4.0554  -10.8600    4.7689    2.9446    6.1574   66.2230   21.4350   49.1510
    2.9000   -7.6554   -4.5596   -3.0311    2.4446   -4.2426    2.2229  119.4300  153.1500
    2.9040  -14.2550    9.0404  -11.5310    5.9446  -16.6430  -91.7770  261.4400  315.1500
    2.9080  -25.1550   25.2400  -26.4310    5.0446  -36.0430 -269.7800  435.4300  471.1500
    2.9120  -30.2550   53.0400  -40.3310    4.0446  -56.2430 -465.7800  567.4300  599.1500
    2.9160  -36.1550   74.1400  -54.6310    2.6446  -73.0430 -641.7800  707.4300  735.1500
    2.9200  -39.5550   93.2400  -64.5310    1.3446  -87.3430 -743.7800  771.4300  735.1500
    2.9240  -31.9550  106.3400  -63.5310  -10.3550  -86.6430 -661.7800  661.4300  507.1500
    2.9280   -6.8554  101.0400  -47.1310  -24.6550  -68.2430 -449.7800  395.4400  147.1500
    2.9320   17.2450   79.9400  -26.2310  -33.2550  -41.6430 -221.7800   95.4350 -148.8500
    2.9360   32.7450   51.6400   -3.5311  -36.7550  -14.5430  -13.7770 -134.5600 -336.8500
    2.9400   39.1450   23.3400    8.2689  -33.0550    5.8574  136.2200 -232.5600 -374.8500
    2.9440   36.0450    1.5404   14.1690  -21.8550   16.8570  158.2200 -284.5600 -332.8500
    2.9480   23.6450  -15.5600   18.0690  -10.7550   24.7570  184.2200 -250.5600 -234.8500
    2.9520   12.8450  -25.9600   16.8690   -6.6554   26.1570  158.2200 -232.5600 -164.8500
    2.9560    8.6446  -30.6600   18.3690   -3.6554   27.1570  152.2200 -210.5600 -136.8500
    2.9600    5.8446  -32.5600   17.5690   -0.5554   27.5570  162.2200 -188.5600 -124.8500
    2.9640    4.3446  -31.5600   16.1690   -3.1554   24.1570  148.2200 -190.5600 -132.8500
    2.9680    4.6446  -28.0600   17.3690   -3.4554   24.1570  162.2200 -192.5600 -136.8500
    2.9720    4.7446  -27.4600   14.8690   -3.0554   22.1570  154.2200 -172.5600 -100.8500
    2.9760    4.1446  -26.3600   15.2690   -1.8554   21.0570  136.2200 -170.5600 -106.8500
    2.9800    5.8446  -26.1600   15.3690    0.2446   20.0570  136.2200 -160.5600 -102.8500
    2.9840    2.9446  -25.8600   14.8690    1.4446   19.1570  132.2200 -126.5600  -88.8490
    2.9880    0.2446  -26.0600   13.7690   -0.6554   16.3570   94.2230 -150.5600 -100.8500
    2.9920    0.4446  -23.6600   13.4690   -1.7554   13.9570  104.2200 -126.5600  -74.8490
    2.9960    0.1446  -22.6600   12.3690   -1.9554   12.3570  104.2200 -112.5600  -62.8490
    3.0000   -0.1554  -19.9600   11.7690   -1.8554   10.8570   92.2230 -114.5600  -50.8490
    3.0040    2.6446  -15.9600   10.2690   -2.0554   10.3570   86.2230 -108.5600  -66.8490
    3.0080    1.5446  -16.1600    8.2689   -1.8554   11.3570   92.2230  -78.5650  -36.8490
    3.0120    1.8446  -13.4600    6.7689   -2.3554    8.6574   64.2230  -94.5650  -50.8490
    3.0160    0.1446  -11.9600    4.7689   -3.3554    6.9574   64.2230  -74.5650  -46.8490
    3.0200   -1.2554  -12.3600    4.7689   -3.5554    4.8574   56.2230  -78.5650  -42.8490
    3.0240   -0.4554   -9.9596    4.7689   -3.7554    3.6574   66.2230  -54.5650  -30.8490
    3.0280   -1.4554   -9.6596    4.8689   -4.0554    4.7574   76.2230  -30.5650   -8.8493
    3.0320    0.2446   -8.7596    4.3689   -4.3554    4.4574   54.2230  -38.5650  -12.8490
    3.0360   -2.6554   -9.4596    1.8689   -4.5554    3.3574   24.2230  -64.5650  -22.8490
    3.0400   -2.2554   -8.2596    2.2689   -5.3554    2.5574   14.2230  -58.5650  -24.8490
    3.0440   -2.2554   -6.5596    4.5689   -4.4554    4.7574   38.2230  -24.5650   -6.8493
    3.0480   -0.4554   -4.6596    6.1689   -6.3554    4.0574   40.2230  -26.5650    1.1507
    3.0520    1.6446   -1.5596    5.7689   -4.9554    3.5574   42.2230  -26.5650   -4.8493
    3.0560   -0.7554   -3.9596    3.0689   -5.5554    0.9574   28.2230  -32.5650   -8.8493
    3.0600   -0.1554   -2.8596    1.1689   -3.7554   -0.8426   24.2230  -26.5650  -10.8490
    3.0640    1.5446   -0.9596   -1.2311   -2.7554    1.2574   34.2230  -16.5650  -12.8490
    3.0680    8.8446    6.7404   -4.0311   -2.0554    4.2574   48.2230    7.4350   23.1510
    3.0720   17.7450   15.4400  -11.3310   -4.0554   -1.9426   10.2230  -16.5650   23.1510
    3.0760   14.0450   15.5400  -15.3310   -4.5554   -8.0426   20.2230  -12.5650   15.1510
    3.0800    4.3446    7.3404  -15.2310   -8.6554  -14.7430  -17.7770  -28.5650  -10.8490
    3.0840  -12.7550   -5.2596   -3.3311   -9.7554  -15.1430    6.2229  -22.5650   -8.8493
    3.0880  -16.6550  -10.5600    4.7689  -14.5550  -12.3430    4.2229   -0.5650   13.1510
    3.0920   -8.2554   -4.2596    4.2689  -11.7550   -9.0426   -1.7771   -2.5650   27.1510
    3.0960   -4.6554    0.5404    1.0689   -9.4554   -7.5426    6.2229    9.4350   43.1510
    3.1000   -6.0554    1.2404    0.2689   -8.3554   -7.4426   -1.7771    7.4350   39.1510
    3.1040   -5.9554    0.9404    0.6689   -9.0554   -7.1426  -15.7770   -2.5650   21.1510
    3.1080   -3.8554    3.3404    1.7689   -9.0554   -7.0426   -3.7771    9.4350   29.1510
    3.1120   -4.4554    5.5404    0.0689   -6.9554   -8.9426   -1.7771   19.4350   37.1510
    3.1160   -2.1554    5.8404    0.0689   -6.3554   -7.9426   -7.7771   19.4350   35.1510
    3.1200   -3.5554    3.6404    0.4689   -6.1554   -5.7426   -7.7771   23.4350   39.1510
    3.1240   -4.0554    2.6404    0.4689   -8.7554   -4.7426  -11.7770   25.4350   31.1510
    3.1280   -6.5554    2.8404   -1.4311   -7.9554   -3.5426   -7.7771   27.4350   27.1510
    3.1320   -5.6554    4.2404   -2.3311   -7.9554   -4.5426   -1.7771   43.4350   37.1510
    3.1360   -3.6554    4.4404   -0.5311   -6.3554   -6.8426  -11.7770   25.4350   19.1510
    3.1400   -4.3554    3.2404   -2.1311   -7.2554   -7.6426  -21.7770   29.4350   27.1510
    3.1440   -5.7554    1.9404   -1.2311   -6.3554   -8.0426  -33.7770   21.4350   27.1510
    3.1480   -4.6554    5.0404   -1.3311   -5.7554   -7.5426  -33.7770   25.4350   37.1510
    3.1520   -5.9554    5.5404   -2.9311   -5.4554   -5.7426  -29.7770   53.4350   49.1510
    3.1560   -4.1554    6.8404   -1.5311   -4.2554   -3.1426  -19.7770   55.4350   47.1510
    3.1600   -6.2554    5.6404   -1.7311   -6.5554   -3.3426  -37.7770   35.4350   33.1510
    3.1640   -5.1554    5.0404   -0.4311   -6.4554   -2.8426  -35.7770   35.4350   33.1510
    3.1680   -6.7554    6.4404   -2.2311   -5.3554   -2.7426  -31.7770   31.4350   37.1510
    3.1720   -6.0554    8.8404   -0.6311   -5.3554   -3.9426  -27.7770   47.4350   47.1510
    3.1760   -5.6554    6.9404    0.7689   -3.8554   -3.1426   -5.7771   51.4350   39.1510
    3.1800   -3.4554    4.2404    2.1689   -4.4554   -3.5426  -37.7770   19.4350   25.1510
    3.1840   -4.6554    3.4404   -0.3311   -5.2554   -3.6426  -31.7770   37.4350   33.1510
    3.1880   -5.5554    2.1404    0.4689   -5.0554   -3.2426  -13.7770   39.4350   45.1510
    3.1920   -4.4554    2.6404    3.4689   -4.4554   -3.8426   -9.7771   21.4350   35.1510
    3.1960   -3.7554    3.0404    2.2689   -7.5554   -3.8426    6.2229   21.4350   23.1510
    3.2000   -2.5554    0.4404    2.1689   -7.2554   -3.0426   -9.7771   -4.5650   21.1510
    3.2040   -1.0554   -0.8596    2.0689   -5.3554   -1.1426   -7.7771  -14.5650    3.1507
    3.2080   -2.3554   -2.0596    3.7689   -3.1554    1.6574   26.2230    7.4350   21.1510
    3.2120   -1.1554   -1.9596    4.5689   -3.6554    1.9574   26.2230   -2.5650   11.1510
    3.2160   -1.3554   -4.4596    7.1689   -6.0554    5.7574   44.2230   -6.5650  -10.8490
    3.2200   -0.5554   -6.6596    5.0689   -7.7554    4.3574    6.2229  -48.5650  -26.8490
    3.2240    0.8446   -5.9596    6.5689   -7.5554    5.9574   24.2230  -52.5650  -42.8490
    3.2280    0.7446   -5.7596    6.7689   -8.2554    5.7574   28.2230  -50.5650  -40.8490
    3.2320    2.4446   -3.9596    7.4689   -7.1554    5.9574   32.2230  -58.5650  -56.8490
    3.2360    2.8446   -4.3596    8.4689   -5.4554    6.2574   36.2230  -56.5650  -52.8490
    3.2400    3.5446   -4.6596    8.4689   -6.4554    5.6574   44.2230  -52.5650  -62.8490
    3.2440    4.7446   -3.4596    6.5689   -7.9554    4.3574   36.2230  -62.5650  -68.8490
    3.2480    5.0446   -5.5596    7.9689   -8.2554    4.5574   32.2230  -66.5650  -64.8490
    3.2520    4.5446   -6.3596    7.2689   -5.7554    5.4574   28.2230  -56.5650  -54.8490
    3.2560    2.8446   -4.0596    6.7689   -5.7554    5.9574   28.2230  -48.5650  -42.8490
    3.2600    2.2446   -3.0596    6.8689   -5.8554    6.7574   28.2230  -44.5650  -44.8490
    3.2640    3.4446   -2.0596    7.2689   -4.4554    7.0574    6.2229  -58.5650  -58.8490
    3.2680    3.2446   -2.1596    7.1689   -1.9554    8.6574   20.2230  -60.5650  -64.8490
    3.2720    2.1446   -5.3596    6.7689   -5.1554    8.7574   20.2230  -48.5650  -56.8490
    3.2760    2.4446   -6.9596    6.7689   -6.3554    7.2574   16.2230  -50.5650  -46.8490
    3.2800    0.1446   -5.7596    7.5689   -7.1554    4.8574   -1.7771  -54.5650  -52.8490
    3.2840    0.2446   -4.3596    8.0689   -6.2554    4.7574   20.2230  -24.5650  -20.8490
    3.2880    0.2446   -3.9596    6.9689   -5.6554    2.9574   12.2230  -38.5650  -34.8490
    3.2920   -0.2554   -2.8596    5.7689   -5.9554    3.9574   24.2230  -32.5650  -38.8490
    3.2960   -1.1554   -4.3596    4.6689   -7.4554    3.7574   20.2230  -26.5650  -24.8490
    3.3000   -1.3554   -2.2596    4.4689   -4.8554    3.4574   14.2230   -8.5650  -10.8490
    3.3040   -0.8554   -1.8596    5.2689   -3.2554    2.5574   -1.7771  -34.5650  -24.8490
    3.3080   -1.5554   -3.3596    4.6689   -3.0554    1.6574   12.2230   -6.5650   -2.8493
    3.3120   -2.6554   -2.2596    4.1689   -4.4554   -0.1426   -3.7771  -22.5650   -6.8493
    3.3160   -4.0554   -1.3596    5.3689   -6.3554    0.8574   -5.7771  -16.5650  -10.8490
    3.3200   -4.6554   -2.8596    6.1689   -5.4554    2.1574   -7.7771  -28.5650  -24.8490
    3.3240   -3.9554   -1.9596    5.9689   -6.9554    1.6574  -25.7770  -22.5650  -28.8490
    3.3280   -4.0554   -4.2596    6.5689   -5.2554    3.1574  -11.7770  -14.5650  -30.8490
    3.3320   -3.6554   -4.4596    6.4689   -3.8554    3.4574   -7.7771  -10.5650   -8.8493
    3.3360   -2.9554   -3.3596    5.4689   -2.9554    3.4574    6.2229   -0.5650    7.1507
    3.3400   -5.0554   -4.7596    5.6689   -3.8554    2.6574    2.2229   -6.5650    3.1507
    3.3440   -4.3554   -2.9596    5.5689   -4.9554    2.1574    0.2229  -16.5650   -0.8493
    3.3480   -4.8554   -3.8596    5.6689   -5.5554    0.7574  -17.7770  -26.5650  -14.8490
    3.3520   -2.8554   -2.0596    6.2689   -4.5554    0.0574    2.2229   -2.5650   -0.8493
    3.3560   -3.0554   -2.1596    2.8689   -4.4554   -0.7426   -5.7771  -18.5650   -8.8493
    3.3600   -5.7554   -3.4596    3.6689   -3.2554    0.7574    4.2229   -6.5650   -2.8493
    3.3640   -6.7554   -6.3596    3.3689   -2.5554    0.6574  -13.7770  -24.5650  -12.8490
    3.3680   -5.8554   -3.4596    4.0689   -3.8554    0.2574    4.2229   -2.5650    3.1507
    3.3720   -4.3554   -0.5596    3.8689   -4.9554   -1.9426  -17.7770  -18.5650  -14.8490
    3.3760   -2.9554    0.1404    4.9689   -3.0554   -0.2426   -3.7771  -18.5650  -14.8490
    3.3800   -3.9554   -1.8596    4.5689   -5.0554    1.7574    0.2229   -4.5650    3.1507
    3.3840   -4.6554   -2.2596    3.9689   -4.6554    1.4574   -9.7771  -16.5650   -0.8493
    3.3880   -4.4554   -2.5596    3.5689   -2.5554    3.4574   -3.7771  -12.5650   -8.8493
    3.3920   -5.4554   -3.2596    2.2689   -3.1554    3.8574   -7.7771   -2.5650   13.1510
    3.3960   -5.0554   -1.2596    1.6689   -3.2554    2.5574   -9.7771  -10.5650    7.1507
    3.4000   -3.0554    0.8404    1.3689   -4.5554    2.3574   -7.7771  -18.5650    3.1507
    3.4040   -3.0554   -0.8596    2.1689   -3.9554    4.4574   18.2230    9.4350   25.1510
    3.4080   -2.2554   -3.3596    3.1689   -3.1554    2.2574    2.2229   -6.5650   -0.8493
    3.4120   -3.9554   -3.2596    4.0689   -4.0554    1.3574   10.2230    1.4350  -10.8490
    3.4160   -5.2554   -3.8596    2.9689   -6.2554    0.7574   -5.7771   -2.5650    7.1507
    3.4200   -4.6554   -2.7596    3.5689   -7.4554    2.6574   -7.7771  -10.5650    3.1507
    3.4240   -4.4554   -2.5596    4.2689   -5.5554    4.8574    6.2229    1.4350   11.1510
    3.4280   -5.6554   -4.5596    2.9689   -4.4554    3.8574    4.2229   11.4350   27.1510
    3.4320   -3.7554   -1.7596    2.8689   -3.0554    1.4574    4.2229  -10.5650    1.1507
    3.4360   -4.5554   -0.9596    1.1689   -3.7554    0.0574    6.2229   -8.5650   -6.8493
    3.4400   -4.1554   -1.6596    2.1689   -3.3554   -1.3426    2.2229   -6.5650   -0.8493
    3.4440   -5.7554    0.0404    3.0689   -5.2554   -0.7426    6.2229    1.4350   19.1510
    3.4480   -7.7554   -1.5596    3.4689   -4.3554    0.3574   12.2230   -2.5650   13.1510
    3.4520   -9.2554   -1.9596    2.9689   -3.1554    0.9574   38.2230   21.4350   37.1510
    3.4560   -7.6554   -1.1596    0.8689   -2.1554   -1.0426   44.2230   39.4350   61.1510
    3.4600   -7.5554   -0.1596   -0.9311   -2.7554   -1.1426   24.2230   33.4350   43.1510
    3.4640   -7.3554   -0.2596   -2.0311    1.5446   -0.5426   22.2230   43.4350   63.1510
    3.4680   -7.8554    1.1404   -5.1311    2.1446   -1.6426   10.2230   33.4350   39.1510
    3.4720   -8.2554   -0.2596   -4.0311    1.2446   -1.0426   28.2230   45.4350   45.1510
    3.4760  -10.6550   -0.6596   -3.7311   -1.1554   -1.5426   36.2230   53.4350   57.1510
    3.4800   -9.4554    1.6404   -0.3311   -3.2554    1.3574   38.2230   51.4350   43.1510
    3.4840   -8.4554    0.9404    1.4689   -5.6554    1.5574   10.2230   27.4350   35.1510
    3.4880   -5.1554   -0.0596    4.3689   -6.7554    3.0574    0.2229   13.4350   19.1510
    3.4920   -3.2554   -1.6596    2.7689   -6.5554    0.3574  -35.7770    3.4350   19.1510
    3.4960   -2.8554   -2.5596    1.6689   -7.0554    0.9574  -45.7770   -2.5650    5.1507
    3.5000   -1.4554   -0.4596    0.7689   -5.6554    1.6574  -27.7770    7.4350    9.1507
    3.5040   -1.5554    1.4404    0.0689   -5.1554    1.3574  -35.7770   -4.5650  -14.8490
    3.5080   -1.8554    1.9404   -0.0311   -3.6554    2.7574  -47.7770  -22.5650  -22.8490
    3.5120    2.0446    5.3404   -0.0311   -0.7554    5.4574  -17.7770   -4.5650  -12.8490
    3.5160    6.6446    7.1404   -0.5311   -2.0554   10.5570  -37.7770  -22.5650  -26.8490
    3.5200   15.2450   12.2400   -3.7311   -2.6554   12.1570  -15.7770   -4.5650  -16.8490
    3.5240   17.5450   14.1400  -10.2310   -3.9554    4.1574  -17.7770  -32.5650  -50.8490
    3.5280    9.4446    7.8404  -12.5310   -5.0554   -3.7426   -7.7771  -22.5650  -32.8490
    3.5320   -4.3554   -6.2596   -2.2311   -5.7554   -8.2426  -13.7770  -30.5650  -40.8490
    3.5360  -15.3550  -14.3600    8.0689   -9.6554   -6.9426  -21.7770  -28.5650  -12.8490
    3.5400  -10.2550  -10.2600   10.9690  -11.9550   -3.0426  -11.7770  -36.5650  -28.8490
    3.5440   -3.7554   -5.9596    9.0689  -12.4550    0.7574    2.2229  -26.5650  -20.8490
    3.5480   -0.1554   -4.6596    7.0689   -9.7554    3.0574    8.2229  -14.5650  -18.8490
    3.5520   -0.1554   -4.8596    6.4689  -11.0550    2.8574  -23.7770  -38.5650  -44.8490
    3.5560   -1.7554   -4.3596    3.5689   -6.8554    2.5574    8.2229    3.4350  -10.8490
    3.5600   -0.1554   -1.8596    2.9689   -5.1554    0.0574  -11.7770  -18.5650  -16.8490
    3.5640   -0.0554   -1.7596    4.0689   -8.2554   -0.1426  -13.7770  -14.5650  -12.8490
    3.5680   -2.0554   -3.8596    6.9689   -8.2554    1.5574  -31.7770  -28.5650  -18.8490
    3.5720   -3.4554   -5.5596    6.2689   -6.7554    2.6574  -31.7770  -18.5650   -2.8493
    3.5760   -2.4554   -5.6596    6.5689   -6.0554    2.9574  -11.7770  -10.5650    3.1507
    3.5800   -2.4554   -3.9596    3.3689   -6.3554   -0.3426   -7.7771  -16.5650  -10.8490
    3.5840   -0.3554   -1.6596    1.6689   -6.0554   -0.1426    0.2229  -12.5650  -14.8490
    3.5880    0.6446   -2.7596    1.1689   -7.0554   -1.0426   -1.7771   -6.5650   -2.8493
    3.5920    1.1446   -3.3596    2.8689   -8.8554   -2.2426   -3.7771  -12.5650    5.1507
    3.5960   -0.3554   -3.6596    3.1689   -7.8554   -0.7426   -3.7771  -32.5650   -4.8493
    3.6000   -3.1554   -7.5596    5.5689   -4.8554    4.1574   28.2230  -34.5650    7.1507
    3.6040   -6.5554  -12.0600    5.9689    0.5446    7.0574   44.2230  -46.5650   13.1510
    3.6080   -9.8554  -14.3600    6.5689    2.7446    8.6574   56.2230  -24.5650   21.1510
    3.6120  -10.6550  -12.0600    6.6689    3.7446    6.2574   66.2230   51.4350   69.1510
    3.6160  -13.0550   -3.2596    0.0689    3.6446   -5.2426   -9.7771  145.4400  191.1500
    3.6200  -20.8550    8.3404  -11.0310    6.3446  -18.8430 -131.7800  287.4400  341.1500
    3.6240  -30.5550   26.1400  -26.5310    6.8446  -37.8430 -275.7800  485.4300  511.1500
    3.6280  -37.1550   50.6400  -41.0310    3.9446  -58.8430 -455.7800  629.4300  621.1500
    3.6320  -42.7550   68.4400  -52.9310    2.1446  -74.5430 -623.7800  737.4300  743.1500
    3.6360  -46.8550   84.7400  -62.0310    0.0446  -86.6430 -695.7800  809.4300  733.1500
    3.6400  -40.9550   95.0400  -62.0310  -10.2550  -84.7430 -581.7800  697.4300  481.1500
    3.6440  -11.0550   92.5400  -44.5310  -26.3550  -65.1430 -351.7800  415.4300  107.1500
    3.6480   17.3450   77.1400  -22.8310  -36.7550  -40.1430 -105.7800  131.4400 -136.8500
    3.6520   34.7450   51.4400   -4.6311  -40.2550  -17.4430   24.2230 -150.5600 -350.8500
    3.6560   39.6450   23.7400    9.4689  -35.5550    1.4574  160.2200 -260.5600 -372.8500
    3.6600   34.7450    2.3404   13.6690  -24.9550   13.0570  194.2200 -264.5600 -308.8500
    3.6640   23.6450  -13.6600   17.0690  -15.0550   18.7570  180.2200 -258.5600 -236.8500
    3.6680   13.3450  -24.0600   17.0690   -8.1554   21.6570  168.2200 -220.5600 -170.8500
    3.6720    8.1446  -29.7600   17.6690   -6.0554   23.9570  146.2200 -206.5600 -142.8500
    3.6760    5.3446  -32.0600   18.0690   -4.2554   24.7570  140.2200 -206.5600 -138.8500
    3.6800    3.0446  -31.6600   16.7690   -4.1554   23.8570  136.2200 -196.5600 -124.8500
    3.6840    1.4446  -29.7600   15.3690   -3.4554   24.5570  138.2200 -186.5600 -110.8500
    3.6880    2.9446  -29.6600   15.2690    0.1446   24.1570  118.2200 -200.5600 -118.8500
    3.6920    0.2446  -29.5600   14.5690    1.6446   21.9570  112.2200 -176.5600  -96.8490
    3.6960    0.2446  -28.2600   14.4690   -0.0554   19.6570   84.2230 -180.5600 -104.8500
    3.7000   -0.3554  -25.8600   14.6690   -1.5554   19.4570  100.2200 -142.5600  -72.8490
    3.7040    0.6446  -21.8600   14.7690   -1.3554   18.3570   96.2230 -146.5600  -90.8490
    3.7080   -3.3554  -22.7600   12.4690    0.2446   17.5570   88.2230 -138.5600  -86.8490
    3.7120   -2.5554  -20.7600   10.3690   -0.5554   15.4570   72.2230 -126.5600  -60.8490
    3.7160   -2.5554  -18.5600    8.7689   -2.4554   13.2570   70.2230 -118.5600  -56.8490
    3.7200   -1.8554  -16.5600    7.4689   -4.7554   12.1570   72.2230  -92.5650  -36.8490
    3.7240    0.6446  -13.1600    9.6689   -1.9554   13.3570   82.2230  -88.5650  -54.8490
    3.7280    0.0446  -14.9600   10.1690   -3.6554   13.0570   72.2230  -80.5650  -48.8490
    3.7320   -2.0554  -13.8600    7.1689   -2.6554   12.1570   70.2230  -64.5650  -46.8490
    3.7360   -2.4554  -12.2600    5.2689   -2.8554    9.9574   50.2230  -58.5650  -24.8490
    3.7400   -1.1554  -10.4600    4.3689   -2.4554    8.3574   50.2230  -52.5650  -14.8490
    3.7440   -2.3554   -8.9596    4.5689   -3.2554    6.7574   38.2230  -54.5650  -16.8490
    3.7480   -1.4554   -7.8596    4.8689   -5.3554    6.6574   36.2230  -38.5650  -16.8490
    3.7520   -3.2554   -8.6596    3.6689   -3.8554    6.1574   40.2230  -36.5650  -14.8490
    3.7560   -3.0554   -9.8596    3.0689   -2.2554    4.3574   50.2230  -28.5650  -16.8490
    3.7600   -3.3554   -8.0596    4.6689   -5.2554    2.5574   46.2230  -32.5650  -20.8490
    3.7640   -3.0554   -6.7596    3.9689   -5.8554    4.1574   42.2230  -28.5650  -22.8490
    3.7680   -3.0554   -7.9596    2.3689   -5.4554    4.2574   32.2230  -28.5650   -6.8493
    3.7720   -2.3554   -5.5596    1.4689   -5.2554    2.2574   18.2230  -36.5650   -0.8493
    3.7760   -5.9554   -5.0596    0.9689   -3.1554    1.5574   32.2230   -6.5650   15.1510
    3.7800   -4.7554   -4.4596    1.1689   -3.2554   -1.1426   24.2230  -20.5650   -8.8493
    3.7840   -4.6554   -4.9596    0.5689   -4.3554   -0.6426   24.2230  -12.5650   -2.8493
    3.7880   -4.5554   -3.9596    0.0689   -6.3554   -0.9426    8.2229  -14.5650   -8.8493
    3.7920   -3.0554   -1.8596    0.4689   -4.8554    0.0574    8.2229   -6.5650   -6.8493
    3.7960   -6.2554   -2.3596    0.1689   -4.4554    0.9574   40.2230   23.4350   37.1510
    3.8000   -2.7554   -1.1596   -0.2311   -3.1554   -0.6426   12.2230   -0.5650    7.1507
    3.8040   -4.9554   -2.4596    1.2689   -3.4554   -0.2426   34.2230   19.4350   21.1510
    3.8080   -4.1554   -1.3596   -0.2311   -4.2554   -3.5426   -1.7771    5.4350   19.1510
    3.8120   -4.4554   -0.0596   -1.2311   -3.2554   -2.7426    6.2229    9.4350   15.1510
    3.8160   -4.4554   -1.6596   -0.3311   -4.1554   -2.6426   -9.7771    7.4350   27.1510
    3.8200   -5.6554    0.2404   -4.3311   -5.9554   -4.7426  -11.7770   11.4350   13.1510
    3.8240   -3.5554    1.3404   -3.7311   -6.8554   -5.0426   -1.7771   23.4350   29.1510
    3.8280   -3.7554    0.9404   -2.6311   -6.9554   -6.3426   -1.7771   23.4350   41.1510
    3.8320   -1.9554    3.8404   -2.3311   -5.9554   -5.6426    0.2229   27.4350   47.1510
    3.8360   -4.9554    1.8404   -3.5311   -4.1554   -5.3426  -11.7770   35.4350   47.1510
    3.8400   -5.7554    2.2404   -3.1311   -5.9554   -3.9426  -23.7770   29.4350   35.1510
    3.8440   -5.9554    3.5404   -2.7311   -3.7554   -3.1426   -7.7771   41.4350   47.1510
    3.8480   -4.4554    4.0404   -3.1311   -6.4554   -3.9426  -19.7770   33.4350   55.1510
    3.8520   -5.7554    4.0404   -4.1311   -8.2554   -4.0426  -19.7770   45.4350   53.1510
    3.8560   -3.2554    7.6404   -4.1311   -9.2554   -5.3426  -17.7770   49.4350   57.1510
    3.8600   -2.0554    9.3404   -5.0311  -11.2550   -7.6426  -27.7770   37.4350   31.1510
    3.8640   -3.6554    9.1404   -5.0311  -11.1550   -7.0426  -13.7770   55.4350   33.1510
    3.8680   -4.5554    5.8404   -5.8311  -11.4550   -7.9426  -25.7770   61.4350   59.1510
    3.8720   -3.9554    6.8404   -2.4311   -7.3554   -4.9426  -17.7770   47.4350   33.1510
    3.8760   -5.6554    4.2404   -2.1311   -6.1554   -4.0426  -11.7770   69.4350   63.1510
    3.8800   -4.4554    5.4404   -1.3311   -4.2554   -4.5426  -33.7770   37.4350   43.1510
    3.8840   -3.7554    6.6404   -0.7311   -2.2554   -4.4426  -27.7770   49.4350   57.1510
    3.8880   -3.9554    6.8404   -3.2311   -1.6554   -3.6426  -33.7770   49.4350   53.1510
    3.8920   -6.8554    5.0404   -4.0311   -4.9554   -3.6426  -47.7770   41.4350   57.1510
    3.8960   -6.4554    5.2404   -4.2311   -4.7554   -2.0426  -15.7770   53.4350   47.1510
    3.9000   -6.5554    4.7404   -4.1311   -4.3554   -1.6426   -3.7771   65.4350   67.1510
    3.9040   -4.9554    5.3404   -3.1311   -4.5554   -1.2426  -13.7770   39.4350   51.1510
    3.9080   -3.8554    4.6404   -2.3311   -3.4554    1.3574    4.2229   33.4350   37.1510
    3.9120   -2.5554    1.2404   -3.1311   -4.1554    0.1574   -1.7771   31.4350   27.1510
    3.9160   -1.5554    0.7404   -1.6311   -2.3554    0.0574   -1.7771    3.4350   29.1510
    3.9200    0.5446   -0.1596   -0.1311   -3.1554    3.2574   12.2230   17.4350   35.1510
    3.9240   -1.5554   -3.6596    3.0689   -2.6554    5.6574    6.2229    5.4350   39.1510
    3.9280   -1.7554   -4.6596    3.2689   -0.5554    7.3574   -1.7771  -22.5650   13.1510
    3.9320   -2.6554   -5.6596    5.4689   -0.8554    7.4574   38.2230  -24.5650   -8.8493
    3.9360   -1.0554   -6.4596    4.7689   -4.0554    6.6574   50.2230  -16.5650  -18.8490
    3.9400   -0.8554   -5.1596    3.2689   -4.8554    7.9574   30.2230  -36.5650  -20.8490
    3.9440    0.1446   -5.3596    5.8689   -6.6554   10.0570   40.2230  -42.5650  -28.8490
    3.9480   -1.3554   -5.9596    7.3689   -7.5554   11.1570   42.2230  -42.5650  -44.8490
    3.9520   -0.3554   -7.4596    6.2689   -6.4554   10.8570   32.2230  -52.5650  -34.8490
    3.9560    1.0446   -6.5596    6.6689   -3.2554   10.4570   20.2230  -78.5650  -58.8490
    3.9600    2.3446   -8.3596    4.2689   -0.7554   10.8570   46.2230  -62.5650  -36.8490
    3.9640    6.7446   -2.7596    0.4689   -1.3554    8.2574   50.2230  -56.5650  -50.8490
    3.9680   13.2450    3.8404    0.4689   -1.0554   10.6570   44.2230  -64.5650  -72.8490
    3.9720   18.2450    9.1404   -4.8311   -2.1554    9.6574   34.2230  -60.5650  -72.8490
    3.9760   16.2450    7.3404   -7.9311   -2.1554    5.0574   34.2230  -50.5650  -66.8490
    3.9800    8.8446    1.5404   -5.7311   -4.3554   -1.8426   38.2230  -44.5650  -56.8490
    3.9840   -8.3554  -12.7600    6.4689   -9.5554   -4.6426   36.2230  -48.5650  -54.8490
    3.9880  -13.1550  -16.7600    9.7689  -13.1550   -2.3426   30.2230  -48.5650  -40.8490
    3.9920   -5.2554  -10.8600    9.4689  -12.7550    2.0574    8.2229  -70.5650  -66.8490
    3.9960    0.8446   -6.2596    8.6689   -8.2554    5.9574   34.2230  -26.5650  -30.8490
    4.0000    2.8446   -2.7596    3.9689   -5.8554    3.4574   10.2230  -28.5650  -26.8490
    4.0040    0.4446   -3.0596    3.5689   -5.2554    3.5574   18.2230  -38.5650  -38.8490
    4.0080   -0.5554   -4.3596    2.3689   -6.9554    3.6574   16.2230   -0.5650  -10.8490
    4.0120   -0.7554   -3.3596    3.4689   -7.3554    3.9574    6.2229  -36.5650  -54.8490
    4.0160   -1.1554   -3.4596    3.6689   -5.4554    3.6574   26.2230  -12.5650  -22.8490
    4.0200   -2.3554   -5.2596    1.4689   -6.0554    2.0574    8.2229  -16.5650  -18.8490
    4.0240   -2.4554   -3.6596    1.5689   -6.5554    1.5574   -1.7771  -28.5650  -18.8490
    4.0280   -2.1554   -2.1596    1.6689   -6.2554    1.9574   18.2230  -12.5650  -14.8490
    4.0320   -2.2554   -3.1596    2.0689   -6.2554    0.1574   12.2230  -10.5650    1.1507
    4.0360   -2.4554   -2.4596    3.9689   -7.6554    0.4574   10.2230  -12.5650   -6.8493
    4.0400   -3.3554   -3.6596    2.7689   -6.9554   -0.0426    2.2229  -24.5650  -12.8490
    4.0440   -4.1554   -1.1596    2.3689   -5.9554    1.6574   10.2230   -0.5650   -2.8493
    4.0480   -2.2554   -2.7596    1.4689   -4.2554    2.5574   14.2230    9.4350   15.1510
    4.0520   -1.6554   -2.6596   -0.8311   -3.9554    2.2574   -3.7771   -6.5650   -2.8493
    4.0560   -1.6554    0.4404    0.0689   -2.3554    1.3574  -15.7770  -22.5650  -18.8490
    4.0600   -4.2554   -1.5596    1.0689   -6.0554    0.2574   -5.7771  -14.5650  -14.8490
    4.0640   -3.7554   -2.1596    1.8689   -3.2554   -0.2426   22.2230    1.4350   -8.8493
    4.0680   -2.6554   -2.8596    2.2689   -1.5554   -0.0426    8.2229   -6.5650  -16.8490
    4.0720   -0.8554   -1.2596    2.1689   -4.4554    0.2574    0.2229   -0.5650  -12.8490
    4.0760   -2.0554   -0.9596    2.0689   -5.2554    0.9574   -5.7771  -16.5650  -26.8490
    4.0800   -4.8554   -2.9596    0.8689   -4.0554    0.9574   -1.7771    3.4350   21.1510
    4.0840   -3.8554   -2.4596    3.2689   -4.7554    0.7574    2.2229   -0.5650    1.1507
    4.0880   -2.4554   -3.4596    3.5689   -4.5554    1.5574    8.2229    7.4350   11.1510
    4.0920   -3.6554   -2.8596    3.4689   -3.9554   -0.4426   -7.7771  -20.5650  -10.8490
    4.0960   -4.0554   -2.5596    2.8689   -5.7554   -1.7426   12.2230   -0.5650    3.1507
    4.1000   -4.5554   -3.1596    1.1689   -5.6554   -3.7426   -7.7771  -16.5650  -16.8490
    4.1040   -3.7554   -1.5596    2.8689   -4.8554   -2.9426   -3.7771  -18.5650  -26.8490
    4.1080   -3.5554   -2.1596    2.1689   -5.4554   -1.2426   10.2230   13.4350   13.1510
    4.1120   -1.5554   -1.5596    2.4689   -4.5554   -2.5426  -17.7770  -30.5650  -40.8490
    4.1160   -2.8554   -2.5596    1.5689   -1.8554   -2.0426   10.2230  -20.5650  -32.8490
    4.1200   -0.9554   -2.2596    2.1689   -2.9554   -0.0426   26.2230   15.4350    5.1507
    4.1240   -0.0554   -2.6596    1.0689   -3.4554    1.1574   24.2230   -6.5650  -12.8490
    4.1280   -0.9554   -1.4596   -0.8311   -4.4554    0.3574    8.2229   -6.5650  -16.8490
    4.1320   -0.1554   -0.5596    0.8689   -3.9554   -1.1426    2.2229  -22.5650  -28.8490
    4.1360    0.2446   -2.1596   -0.1311   -3.8554   -3.0426   -7.7771  -14.5650  -24.8490
    4.1400   -0.0554   -1.3596    0.4689   -4.8554   -1.0426   16.2230   11.4350    1.1507
    4.1440    0.1446   -1.3596    2.1689   -4.4554    0.8574   -1.7771   -4.5650   -6.8493
    4.1480   -0.8554   -0.9596    3.1689   -4.5554    1.0574    0.2229    1.4350  -10.8490
    4.1520   -1.5554   -0.6596    1.9689   -5.6554   -0.2426   -5.7771  -14.5650  -20.8490
    4.1560   -1.0554    0.1404    1.7689   -2.5554    0.3574    0.2229   -6.5650  -16.8490
    4.1600   -1.6554    1.1404   -0.1311   -3.7554   -1.5426    8.2229   -6.5650   -6.8493
    4.1640    0.1446    0.9404    1.4689   -3.5554   -1.1426   16.2230    7.4350    5.1507
    4.1680    0.6446   -0.5596    0.9689   -3.3554   -1.2426   22.2230    9.4350   17.1510
    4.1720   -1.6554   -1.6596   -0.9311   -2.9554   -4.5426   -9.7771  -14.5650    3.1507
    4.1760   -4.2554   -2.2596   -0.5311   -0.4554   -3.0426   18.2230   19.4350   35.1510
    4.1800   -2.5554   -2.6596   -0.2311   -0.3554   -3.3426    4.2229   13.4350   25.1510
    4.1840   -3.1554    0.4404   -2.3311    1.4446   -2.0426   28.2230   31.4350   33.1510
    4.1880   -5.2554    3.6404   -4.4311    0.8446   -2.8426   16.2230   25.4350   27.1510
    4.1920   -4.5554    4.4404   -4.0311   -1.1554   -4.5426   12.2230   37.4350   25.1510
    4.1960   -5.9554    4.7404   -4.0311   -0.6554   -6.0426   10.2230   35.4350   23.1510
    4.2000   -5.5554    5.2404   -5.0311    1.1446   -5.6426   20.2230   51.4350   35.1510
    4.2040   -7.0554    3.9404   -6.1311    0.6446   -5.7426   32.2230   53.4350   31.1510
    4.2080   -6.3554    2.7404   -6.1311   -2.1554   -5.9426   38.2230   61.4350   53.1510
    4.2120   -4.6554    3.5404   -4.3311   -3.9554   -6.3426    4.2229   11.4350   11.1510
    4.2160   -4.6554    1.2404   -2.6311   -2.9554   -2.8426   14.2230   25.4350   13.1510
    4.2200   -2.7554    0.9404   -1.0311   -3.8554   -2.8426  -19.7770   -2.5650    3.1507
    4.2240   -0.2554    2.0404   -2.2311   -2.7554   -2.6426   -3.7771   11.4350    1.1507
    4.2280   -0.0554    2.0404   -2.8311   -6.3554   -3.6426  -19.7770    1.4350   -4.8493
    4.2320    2.5446    5.8404   -3.1311   -7.5554   -4.4426  -17.7770    3.4350  -12.8490
    4.2360    1.4446    2.5404   -4.1311   -7.1554   -4.3426  -25.7770   -8.5650   -8.8493
    4.2400   -1.8554    1.5404   -3.2311   -4.5554   -1.9426  -21.7770  -10.5650  -16.8490
    4.2440   -0.1554    0.1404   -2.8311   -4.7554   -2.0426  -21.7770  -16.5650  -24.8490
    4.2480    2.3446    2.0404   -2.8311   -3.4554   -1.1426  -15.7770  -18.5650  -46.8490
    4.2520    2.2446    2.4404   -1.3311   -4.4554    0.2574   -3.7771  -14.5650  -26.8490
    4.2560    2.8446    0.9404    0.1689   -4.5554    1.7574  -19.7770  -32.5650  -44.8490
    4.2600    1.4446   -1.2596   -0.4311   -3.6554    0.8574  -21.7770  -46.5650  -42.8490
    4.2640    1.5446   -2.6596   -0.0311   -1.6554    2.3574    8.2229  -10.5650  -16.8490
    4.2680    1.6446   -2.6596   -1.9311   -0.9554    0.8574    8.2229  -16.5650   -6.8493
    4.2720    2.0446   -1.0596   -0.8311    0.0446    2.3574   20.2230  -12.5650  -12.8490
    4.2760    1.9446   -2.0596   -1.2311   -2.1554    1.8574   -7.7771  -26.5650  -34.8490
    4.2800    1.8446   -2.4596   -0.7311   -2.1554    2.9574   -5.7771  -20.5650  -36.8490
    4.2840    0.1446   -1.7596   -1.1311   -1.6554    3.4574   -5.7771  -16.5650  -24.8490
    4.2880    0.6446   -0.1596   -2.9311    0.7446    3.6574  -17.7770  -34.5650  -42.8490
    4.2920    1.4446   -1.0596   -1.9311    1.4446    5.4574   -1.7771  -24.5650  -30.8490
    4.2960    0.4446   -2.0596   -2.3311    0.4446    5.4574   -1.7771  -20.5650  -18.8490
    4.3000    1.1446   -1.0596   -1.0311   -0.7554    4.6574   -1.7771  -14.5650  -14.8490
    4.3040    1.4446   -0.7596   -0.3311    0.4446    4.5574    4.2229  -10.5650  -12.8490
    4.3080   -0.5554   -1.3596   -2.1311    0.0446    1.5574   -9.7771  -14.5650   -8.8493
    4.3120    0.2446   -0.1596   -3.0311    0.9446    0.9574   -1.7771   -8.5650   -2.8493
    4.3160    1.3446   -1.3596   -3.6311   -0.9554    1.3574    2.2229    1.4350    1.1507
    4.3200   -0.3554    0.1404   -0.3311   -0.7554    3.1574    8.2229   -0.5650   -6.8493
    4.3240    0.0446   -2.0596    2.1689    1.6446    5.6574   34.2230   11.4350    3.1507
    4.3280   -1.3554   -5.1596    1.0689    5.2446    5.7574   38.2230  -32.5650  -18.8490
    4.3320   -5.5554  -14.1600   -1.7311    7.9446    5.4574   16.2230  -62.5650  -14.8490
    4.3360   -7.6554  -14.6600   -0.0311   13.4450    7.8574   52.2230  -34.5650   19.1510
    4.3400   -7.9554  -13.6600    0.3689   14.1450    7.1574   78.2230   41.4350   83.1510
    4.3440   -9.6554   -4.9596   -6.1311   13.0450   -4.2426  -13.7770  135.4400  185.1500
    4.3480  -17.3550    6.9404  -13.9310   17.5450  -15.0430  -97.7770  289.4400  325.1500
    4.3520  -27.9550   22.2400  -28.6310   16.3450  -35.8430 -281.7800  451.4300  489.1500
    4.3560  -36.5550   47.6400  -44.8310   12.4450  -56.1430 -433.7800  625.4300  627.1500
    4.3600  -41.4550   64.7400  -57.8310    9.3446  -73.1430 -583.7800  739.4300  719.1500
    4.3640  -46.4550   82.7400  -67.8310    5.7446  -89.8430 -651.7800  861.4300  757.1500
    4.3680  -42.8550   97.7400  -71.5310   -4.0554  -93.3430 -549.7800  805.4300  563.1500
    4.3720  -19.3550   98.6400  -56.7310  -19.7550  -74.4430 -347.7800  539.4300  193.1500
    4.3760   11.9450   86.5400  -33.0310  -33.0550  -48.1430 -125.7800  221.4400 -112.8500
    4.3800   32.2450   61.7400  -10.2310  -36.8550  -21.6430   42.2230  -78.5650 -348.8500
    4.3840   39.0450   31.6400    4.7689  -30.8550   -0.7426  142.2200 -246.5600 -404.8500
    4.3880   35.9450    7.5404   14.6690  -16.4550   14.1570  192.2200 -268.5600 -332.8500
    4.3920   25.1450  -14.0600   15.9690   -4.5554   24.3570  208.2200 -232.5600 -236.8500
    4.3960   15.5450  -25.2600   14.2690    0.0446   26.0570  162.2200 -238.5600 -176.8500
    4.4000    8.6446  -29.4600   13.4690    4.4446   26.5570  132.2200 -234.5600 -150.8500
    4.4040    3.2446  -32.9600   14.0690   10.2450   28.0570  132.2200 -240.5600 -154.8500
    4.4080    3.2446  -32.4600   11.6690   10.4450   25.9570  118.2200 -224.5600 -134.8500
    4.4120    9.1446  -25.4600   11.0690   11.4450   28.2570  124.2200 -210.5600 -136.8500
    4.4160   16.4450  -16.3600    8.4689   11.8450   31.5570  142.2200 -172.5600 -110.8500
    4.4200   20.9450  -12.0600    1.6689   11.5450   26.6570  110.2200 -180.5600 -120.8500
    4.4240   11.8450  -15.9600   -2.4311   10.5450   19.0570   88.2230 -180.5600 -100.8500
    4.4280   -2.2554  -27.4600    2.3689    7.4446   12.0570   80.2230 -166.5600  -84.8490
    4.4320  -13.9550  -36.4600   13.5690    5.9446   13.4570  108.2200 -130.5600  -60.8490
    4.4360  -11.7550  -35.3600   15.5690    5.4446   14.9570   74.2230 -130.5600  -74.8490
    4.4400   -2.7554  -27.5600   13.3690    6.5446   16.9570   94.2230 -106.5600  -62.8490
    4.4440    1.5446  -21.9600   11.1690    6.3446   14.3570   56.2230 -120.5600  -76.8490
    4.4480    3.8446  -17.7600    9.9689    6.0446   13.2570   80.2230 -104.5600  -78.8490
    4.4520    2.4446  -16.8600    9.1689    4.9446   12.9570   84.2230  -86.5650  -42.8490
    4.4560    2.2446  -16.0600    9.1689    4.1446   11.5570   62.2230  -86.5650  -46.8490
    4.4600    0.4446  -15.0600    6.9689    4.9446   10.9570   58.2230  -76.5650  -34.8490
    4.4640    2.2446  -14.5600    7.0689    6.1446    9.9574   48.2230  -70.5650  -42.8490
    4.4680   -0.1554  -14.1600    5.4689    5.6446   10.0570   80.2230  -26.5650  -10.8490
    4.4720   -0.2554  -12.9600    5.3689    4.0446    6.3574   38.2230  -62.5650  -32.8490
    4.4760   -0.3554  -11.2600    5.6689    4.6446    5.7574   56.2230  -38.5650  -32.8490
    4.4800   -0.4554  -11.8600    5.4689    3.0446    3.4574   38.2230  -54.5650  -24.8490
    4.4840    0.3446   -9.5596    4.9689    2.4446    3.1574   38.2230  -44.5650  -18.8490
    4.4880   -0.6554   -8.5596    2.4689    4.6446    2.8574   40.2230  -20.5650  -14.8490
    4.4920   -0.6554   -8.3596    0.4689    5.3446    0.5574   18.2230  -40.5650  -28.8490
    4.4960   -1.5554   -6.6596   -0.3311    4.8446   -0.2426   30.2230  -30.5650  -12.8490
    4.5000   -1.6554   -6.3596   -2.6311    3.5446   -0.4426   24.2230  -30.5650  -20.8490
    4.5040   -2.0554   -4.6596   -2.6311    2.6446    0.5574   16.2230  -20.5650  -14.8490
    4.5080   -0.2554   -3.5596   -1.2311    1.8446    1.7574   28.2230  -12.5650  -16.8490
    4.5120    0.2446   -4.3596   -0.8311    1.5446    1.6574   20.2230   -8.5650   -8.8493
    4.5160    0.9446   -4.3596    0.0689    4.1446    1.4574   32.2230    1.4350    3.1507
    4.5200   -0.3554   -4.6596   -1.0311    7.2446   -0.0426   14.2230   -8.5650   -6.8493
    4.5240   -1.6554   -3.0596   -3.4311    7.8446   -0.5426   16.2230    5.4350   17.1510
    4.5280   -2.1554   -0.9596   -5.3311    8.6446   -2.7426   24.2230    5.4350    3.1507
    4.5320   -1.2554   -0.6596   -5.2311    5.5446   -3.9426    8.2229    1.4350   11.1510
    4.5360   -2.0554   -0.9596   -3.9311    5.9446   -2.7426   18.2230    7.4350   19.1510
    4.5400   -3.1554   -2.1596   -6.3311    3.7446   -3.8426  -17.7770    3.4350   19.1510
    4.5440   -2.1554   -0.7596   -4.1311    4.2446   -2.0426    4.2229    3.4350    5.1507
    4.5480   -4.6554   -0.5596   -4.5311    2.5446   -2.9426    0.2229   19.4350   33.1510
    4.5520   -3.4554    0.1404   -6.6311    3.4446   -3.7426   -1.7771   11.4350   23.1510
    4.5560   -3.1554   -0.1596   -5.2311    4.9446   -4.1426   -7.7771   15.4350   13.1510
    4.5600   -1.4554   -0.9596   -6.7311    4.9446   -4.5426   -5.7771   29.4350   31.1510
    4.5640   -1.5554    1.5404   -5.9311    6.2446   -4.5426   -9.7771   33.4350   59.1510
    4.5680   -2.8554    3.1404   -5.9311    7.3446   -4.8426   -9.7771   41.4350   49.1510
    4.5720   -3.4554    2.2404   -4.7311    7.4446   -3.8426   -3.7771   49.4350   43.1510
    4.5760   -3.2554    2.2404   -5.0311    4.6446   -4.8426  -27.7770   35.4350   27.1510
    4.5800   -4.3554    3.3404   -8.1311    4.2446   -5.1426  -23.7770   47.4350   61.1510
    4.5840   -2.9554    6.1404   -7.5311    4.7446   -6.2426  -31.7770   41.4350   47.1510
    4.5880   -1.6554    6.7404   -5.5311    5.0446   -5.0426  -17.7770   51.4350   45.1510
    4.5920   -1.7554    6.8404   -6.6311    7.1446   -4.8426  -15.7770   53.4350   49.1510
    4.5960   -1.6554    5.7404   -7.6311    5.8446   -4.9426  -33.7770   43.4350   49.1510
    4.6000   -2.9554    5.4404   -8.0311    6.2446   -4.2426  -43.7770   37.4350   41.1510
    4.6040   -3.7554    4.1404   -9.8311    7.1446   -4.1426  -45.7770   39.4350   45.1510
    4.6080   -2.9554    3.9404   -9.3311    8.7446   -5.1426  -33.7770   45.4350   49.1510
    4.6120   -2.7554    3.9404  -10.7310    7.1446   -4.1426  -23.7770   73.4350   73.1510
    4.6160   -0.3554    5.7404   -8.9311    6.7446   -3.0426  -35.7770   45.4350   47.1510
    4.6200   -1.6554    5.3404   -8.1311    3.5446   -2.7426  -35.7770   45.4350   47.1510
    4.6240   -3.8554    5.7404   -7.9311    5.6446   -2.2426  -21.7770   43.4350   37.1510
    4.6280   -2.0554    6.2404   -6.2311    5.6446   -2.3426  -21.7770   37.4350   31.1510
    4.6320   -2.1554    3.9404   -6.3311    7.1446   -1.2426  -11.7770   55.4350   55.1510
    4.6360   -1.2554    3.0404   -4.5311    7.8446   -0.3426   -5.7771   41.4350   55.1510
    4.6400    0.5446    0.8404   -3.4311    6.6446    1.2574   -7.7771   39.4350   65.1510
    4.6440    2.1446    1.0404   -4.1311    6.3446    3.2574   -3.7771   17.4350   29.1510
    4.6480    0.6446   -1.7596   -2.9311    6.1446    4.2574    2.2229   11.4350   33.1510
    4.6520    0.4446   -2.2596   -0.2311    6.3446    5.3574   -1.7771  -18.5650    1.1507
    4.6560    0.1446   -3.0596    2.0689    7.6446    6.3574   24.2230   -0.5650    3.1507
    4.6600    2.3446   -3.6596    1.7689    7.6446    6.4574   30.2230  -16.5650   -8.8493
    4.6640    4.3446   -4.4596    1.5689    7.3446    6.9574   22.2230  -38.5650  -30.8490
    4.6680    4.1446   -5.3596    0.8689    5.2446    7.0574   50.2230  -16.5650  -12.8490
    4.6720    6.2446   -5.4596    3.6689    3.7446    6.3574   30.2230  -44.5650  -40.8490
    4.6760    6.4446   -5.6596    4.4689    5.0446    7.7574   38.2230  -52.5650  -58.8490
    4.6800    6.8446   -6.5596    3.8689    2.2446    8.1574   34.2230  -64.5650  -74.8490
    4.6840    6.7446   -6.9596    4.3689    1.2446    9.1574   40.2230  -52.5650  -76.8490
    4.6880    6.2446   -6.7596    3.8689    1.0446    8.2574   42.2230  -60.5650  -76.8490
    4.6920    7.3446   -6.8596    2.8689    2.9446    6.6574   22.2230  -78.5650  -76.8490
    4.6960    8.6446   -5.1596    3.8689    4.2446    8.5574   58.2230  -56.5650  -66.8490
    4.7000    6.6446   -7.0596    2.5689    1.4446    6.4574   34.2230  -68.5650  -82.8490
    4.7040    6.3446   -6.5596    5.3689    2.9446    7.6574   46.2230  -66.5650  -84.8490
    4.7080    6.1446   -5.1596    2.4689    2.8446    5.8574   18.2230  -66.5650  -86.8490
    4.7120    9.1446   -5.5596    3.2689    2.7446    7.2574   34.2230  -48.5650  -64.8490
    4.7160    9.6446   -4.6596    4.3689    2.9446    7.5574   32.2230  -40.5650  -60.8490
    4.7200    8.6446   -3.1596    3.4689    1.9446    6.4574   28.2230  -42.5650  -52.8490
    4.7240    8.0446   -0.9596    4.0689    3.6446    5.9574   22.2230  -54.5650  -70.8490
    4.7280    6.3446   -2.9596    2.7689    3.7446    5.9574   32.2230  -28.5650  -40.8490
    4.7320    7.3446   -1.3596    1.1689    4.1446    3.8574    6.2229  -52.5650  -60.8490
    4.7360    5.8446   -0.5596    0.1689    5.2446    3.9574   28.2230  -30.5650  -50.8490
    4.7400    4.0446   -2.0596    0.1689    6.2446    5.4574   24.2230  -18.5650  -40.8490
    4.7440    4.5446   -2.6596    1.8689    5.7446    6.2574    6.2229  -32.5650  -48.8490
    4.7480    4.1446   -2.4596    1.4689    4.1446    5.8574   -5.7771  -38.5650  -42.8490
    4.7520    3.3446   -1.8596    1.0689    5.2446    5.0574    4.2229  -28.5650  -36.8490
    4.7560    1.3446   -3.6596    0.2689    5.0446    3.5574    4.2229  -24.5650  -30.8490
    4.7600    1.8446   -3.7596    0.9689    5.0446    2.2574   10.2230  -20.5650  -30.8490
    4.7640    1.2446   -4.0596   -0.7311    5.6446    1.9574   14.2230   -6.5650  -12.8490
    4.7680    2.1446   -2.6596   -0.5311    4.7446    1.6574    0.2229  -18.5650  -26.8490
    4.7720   -0.6554   -3.1596   -2.0311    5.7446    1.0574   -3.7771  -20.5650  -12.8490
    4.7760   -1.4554   -1.9596    0.8689    7.2446    2.4574   -3.7771  -18.5650  -14.8490
    4.7800   -1.2554   -3.5596    0.5689    6.8446    3.8574   -1.7771   -6.5650   -8.8493
    4.7840   -0.0554   -2.6596    1.3689    8.6446    3.8574    4.2229  -10.5650  -12.8490
    4.7880    0.0446   -1.1596    1.1689    6.8446    2.2574    0.2229   -4.5650   -6.8493
    4.7920   -0.2554   -1.1596   -0.2311    4.1446    1.1574  -13.7770  -14.5650  -24.8490
    4.7960   -0.5554   -1.9596    0.3689    3.0446    2.3574    2.2229   -8.5650   -8.8493
    4.8000   -0.0554   -1.8596    0.2689    1.9446    0.1574   -5.7771  -12.5650  -20.8490
    4.8040   -0.0554   -3.3596    0.5689    1.7446    0.2574   -1.7771  -10.5650  -20.8490
    4.8080    0.9446   -4.4596   -0.1311    2.5446   -0.1426    4.2229   -2.5650   -6.8493
    4.8120    1.8446   -3.4596    0.6689    2.9446    0.6574    0.2229  -10.5650  -18.8490
    4.8160    1.1446   -2.8596   -0.7311    3.8446    1.5574    0.2229  -10.5650  -16.8490
    4.8200    1.5446   -2.5596   -1.2311    3.9446    1.9574    2.2229   -4.5650  -12.8490
    4.8240    1.3446   -3.5596   -1.8311    2.4446    0.3574    0.2229  -16.5650  -16.8490
    4.8280    1.1446   -2.9596   -0.0311    3.5446    0.4574    6.2229  -12.5650  -22.8490
    4.8320   -0.3554   -3.7596   -1.8311    3.0446    0.9574   -1.7771    3.4350   -4.8493
    4.8360    1.1446   -0.1596   -1.6311    4.4446    1.1574  -13.7770  -10.5650  -24.8490
    4.8400    1.7446    0.7404   -2.5311    6.5446    2.5574   16.2230    5.4350  -14.8490
    4.8440    2.2446   -0.0596   -2.4311    6.4446    1.2574    2.2229  -20.5650  -38.8490
    4.8480    3.2446   -1.6596   -2.5311    4.8446    2.0574    4.2229   -2.5650  -10.8490
    4.8520    1.7446   -2.4596   -1.9311    9.4446    2.8574    0.2229  -16.5650  -16.8490
    4.8560    3.5446    0.9404   -2.9311   11.0450    5.0574   10.2230    3.4350  -12.8490
    4.8600    9.1446    6.3404   -6.9311    9.6446    7.6574   -3.7771  -10.5650  -20.8490
    4.8640   16.5450   12.0400  -13.4310   10.6450    7.2574    4.2229   -6.5650  -24.8490
    4.8680   15.5450   12.2400  -19.1310    9.2446    1.0574    4.2229    5.4350  -12.8490
    4.8720    7.0446    5.9404  -16.6310    7.0446   -4.6426   -9.7771  -12.5650  -20.8490
    4.8760   -9.3554   -8.2596   -5.6311    3.6446   -7.1426   -1.7771  -26.5650  -36.8490
    4.8800  -16.0550  -13.9600    0.8689   -0.4554   -3.7426    2.2229   -8.5650  -28.8490
    4.8840   -8.8554   -7.3596    0.4689    2.3446   -0.2426    4.2229  -14.5650  -34.8490
    4.8880   -1.4554   -3.6596    0.0689    2.3446    2.2574   16.2230    7.4350  -14.8490
    4.8920   -0.2554   -1.4596    0.6689    1.5446    2.7574   -3.7771  -20.5650  -24.8490
    4.8960   -0.8554    0.3404    0.6689   -0.0554    3.1574    0.2229  -10.5650  -10.8490
    4.9000   -2.6554   -0.7596    1.2689    0.7446    3.3574    2.2229  -10.5650  -12.8490
    4.9040   -1.5554   -1.1596    1.2689    0.8446    3.5574    8.2229    5.4350   -2.8493
    4.9080   -1.8554   -0.2596   -0.3311    2.3446    2.7574    0.2229    5.4350   -4.8493
    4.9120   -2.1554   -1.0596    0.7689    1.6446    2.6574    4.2229    3.4350   -2.8493
    4.9160   -3.1554   -1.7596   -1.2311    2.9446    0.6574    6.2229   11.4350   29.1510
    4.9200   -3.7554    0.4404   -1.5311    3.6446    0.0574    4.2229    9.4350   25.1510
    4.9240   -2.8554    2.1404   -2.1311    4.1446   -0.7426    6.2229   17.4350   19.1510
    4.9280   -4.1554    2.0404   -3.5311    6.0446   -2.7426    4.2229   37.4350   35.1510
    4.9320   -4.1554    3.1404   -4.4311    6.9446   -3.2426    8.2229   33.4350   39.1510
    4.9360   -4.0554    3.8404   -3.8311    6.4446   -3.0426   34.2230   51.4350   35.1510
    4.9400   -3.1554    0.8404   -5.9311    4.7446   -2.9426   28.2230   35.4350   25.1510
    4.9440   -3.5554    1.1404   -4.6311    5.7446   -2.9426   28.2230   37.4350   33.1510
    4.9480   -3.5554    3.5404   -4.4311    7.7446   -2.4426   26.2230   43.4350   39.1510
    4.9520   -4.6554    2.3404   -5.2311    5.3446   -3.5426   28.2230   43.4350   35.1510
    4.9560   -3.0554    2.7404   -4.4311    3.7446   -3.8426    0.2229   -6.5650  -12.8490
    4.9600   -1.5554    0.9404   -3.7311    3.4446   -2.1426    4.2229   15.4350   -8.8493
    4.9640    0.8446    3.3404   -2.6311   -0.4554   -3.7426  -33.7770   -8.5650  -30.8490
    4.9680    4.0446    6.9404   -1.0311    1.1446   -3.0426  -31.7770  -18.5650  -38.8490
    4.9720    3.3446    3.1404   -2.7311   -0.6554   -2.0426  -17.7770   -6.5650  -20.8490
    4.9760    2.5446    1.9404   -1.8311    0.4446   -0.9426  -21.7770   -2.5650  -10.8490
    4.9800    5.2446    2.8404   -0.1311    0.1446    0.8574  -21.7770  -16.5650  -20.8490
    4.9840    5.8446    1.5404    0.8689    1.8446    2.9574   -3.7771  -16.5650  -26.8490
    4.9880    5.9446   -0.5596    0.1689    1.4446    0.9574  -27.7770  -30.5650  -42.8490
    4.9920    4.7446   -0.9596   -0.6311    1.2446    1.1574  -15.7770  -30.5650  -46.8490
    4.9960    3.1446   -1.2596   -0.0311    0.3446    1.5574  -17.7770  -28.5650  -42.8490
    5.0000    3.3446   -0.3596    0.1689    1.0446    1.6574  -11.7770  -24.5650  -32.8490
    5.0040    4.5446   -1.9596   -0.5311    1.5446    1.2574   -3.7771  -22.5650  -18.8490
    5.0080    4.1446   -1.6596   -0.4311    1.9446    1.1574  -19.7770  -38.5650  -50.8490
    5.0120    3.1446   -1.2596    1.9689    3.9446    3.4574    4.2229  -16.5650  -38.8490
    5.0160    3.7446   -0.1596    0.8689    0.7446    1.8574  -15.7770  -26.5650  -42.8490
    5.0200    5.5446    0.8404   -1.1311    2.5446    2.0574  -25.7770  -40.5650  -56.8490
    5.0240    4.5446   -2.1596   -1.5311    3.4446    2.0574  -15.7770  -28.5650  -38.8490
    5.0280    4.3446   -3.3596   -3.2311    4.5446    2.7574  -11.7770  -18.5650  -18.8490
    5.0320    4.0446   -1.2596   -2.2311    3.6446    1.9574  -19.7770  -22.5650  -18.8490
    5.0360    5.9446    0.4404   -0.9311    3.6446    3.7574    4.2229   -2.5650  -12.8490
    5.0400    4.5446   -0.7596   -2.0311    2.5446    2.0574   -7.7771   -2.5650  -10.8490
    5.0440    6.4446   -1.4596   -2.6311    2.5446    1.7574  -17.7770  -22.5650  -32.8490
    5.0480    5.6446   -0.5596   -3.5311    2.0446    1.9574   -7.7771  -14.5650   -2.8493
    5.0520    7.4446    1.6404   -3.9311    3.9446    1.9574  -21.7770  -14.5650   -2.8493
    5.0560    4.8446    1.0404   -2.4311    3.7446    3.4574   -1.7771    3.4350   -4.8493
    5.0600    1.4446   -0.2596   -2.9311    3.6446    2.0574  -17.7770   -6.5650  -12.8490
    5.0640    2.6446    0.7404   -1.0311    4.5446    2.6574    4.2229  -12.5650  -24.8490
    5.0680    2.2446   -1.5596   -0.0311    5.4446    5.2574   20.2230  -32.5650  -22.8490
    5.0720    2.9446   -6.5596    1.0689    7.3446    8.8574   58.2230  -26.5650   -2.8493
    5.0760    1.9446   -9.3596    2.3689    9.0446    9.2574   38.2230  -64.5650  -24.8490
    5.0800   -0.7554   -8.7596    1.9689   14.9450   10.4570   74.2230  -10.5650   23.1510
    5.0840   -4.3554   -5.9596   -4.7311   13.3450    1.5574   30.2230   91.4350  121.1500
    5.0880   -9.2554    6.0404  -13.5310   16.9450  -10.4430  -55.7770  223.4400  265.1500
    5.0920  -21.8550   19.2400  -25.4310   18.4450  -27.6430 -195.7800  421.4300  457.1500
    5.0960  -29.8550   43.1400  -41.3310   16.6450  -52.8430 -425.7800  545.4300  565.1500
    5.1000  -34.1550   65.7400  -52.7310   18.2450  -66.8430 -553.7800  691.4300  697.1500
    5.1040  -40.2550   80.8400  -65.5310   11.9450  -82.7430 -677.7800  815.4300  785.1500
    5.1080  -40.1550   96.6400  -71.2310    5.2446  -91.4430 -639.7800  801.4300  641.1500
    5.1120  -23.2550   96.3400  -60.6310   -9.7554  -79.1430 -467.7800  573.4300  291.1500
    5.1160    4.9446   86.9400  -36.8310  -24.3550  -54.6430 -229.7800  255.4400  -50.8490
    5.1200   26.1450   64.1400  -14.8310  -32.0550  -27.4430  -45.7770  -38.5650 -280.8500
    5.1240   35.9450   36.1400    3.8689  -29.3550   -4.2426  110.2200 -212.5600 -384.8500
    5.1280   35.0450   11.2400   11.7690  -20.7550   10.8570  174.2200 -266.5600 -344.8500
    5.1320   27.2450   -7.2596   12.7690   -7.5554   18.5570  178.2200 -262.5600 -260.8500
    5.1360   17.6450  -20.3600   13.5690    1.1446   22.9570  160.2200 -252.5600 -208.8500
    5.1400   11.0450  -26.1600   13.4690    5.9446   24.0570  156.2200 -218.5600 -146.8500
    5.1440    8.4446  -26.8600   13.6690    9.7446   22.5570  158.2200 -200.5600 -120.8500
    5.1480    8.1446  -28.4600   12.1690    8.9446   20.9570  150.2200 -188.5600 -132.8500
    5.1520   10.7450  -28.6600   13.1690    9.8446   21.2570  140.2200 -196.5600 -128.8500
    5.1560   10.3450  -27.2600   11.9690    7.9446   20.9570  132.2200 -178.5600 -118.8500
    5.1600    7.3446  -27.2600   12.9690    7.4446   19.7570  130.2200 -160.5600 -102.8500
    5.1640    8.2446  -24.0600   14.4690    6.7446   18.3570  110.2200 -164.5600 -110.8500
    5.1680    5.1446  -23.3600   10.8690    5.2446   16.8570  104.2200 -164.5600 -118.8500
    5.1720    5.8446  -20.2600    8.4689    3.0446   14.6570  102.2200 -150.5600  -98.8490
    5.1760    7.5446  -18.9600    7.7689    4.1446   14.0570  108.2200 -122.5600  -90.8490
    5.1800    8.8446  -16.5600    8.0689    8.1446   13.7570  110.2200  -98.5650  -64.8490
    5.1840    7.9446  -13.1600    7.5689    7.9446   12.3570   80.2230 -122.5600  -70.8490
    5.1880    6.2446  -14.7600    5.6689    6.3446   11.4570   76.2230 -116.5600  -60.8490
    5.1920    6.8446  -13.5600    6.0689    3.9446   11.0570   66.2230  -96.5650  -60.8490
    5.1960    7.0446  -12.0600    4.7689    4.4446   10.3570   72.2230  -80.5650  -62.8490
    5.2000    6.2446  -11.6600    5.5689    4.2446    7.8574   62.2230  -70.5650  -54.8490
    5.2040    4.0446  -12.0600    4.0689    2.9446    7.8574   54.2230  -70.5650  -62.8490
    5.2080    5.2446   -8.1596    5.0689    4.5446    8.3574   50.2230  -62.5650  -38.8490
    5.2120    4.2446   -9.4596    2.5689    3.2446    7.2574   40.2230  -72.5650  -44.8490
    5.2160    4.7446   -9.3596    2.6689    6.3446    8.0574   50.2230  -42.5650  -22.8490
    5.2200    4.4446  -10.0600    0.2689    6.7446    6.8574   32.2230  -50.5650  -40.8490
    5.2240    1.3446   -8.9596   -0.7311    5.9446    5.8574   34.2230  -44.5650  -30.8490
    5.2280    1.6446   -6.3596    1.6689    6.5446    5.8574   38.2230  -30.5650  -18.8490
    5.2320    2.9446   -5.2596    1.9689    4.0446    5.1574   40.2230  -14.5650   -0.8493
    5.2360    3.8446   -4.3596    3.3689    2.7446    4.7574   30.2230  -24.5650   -4.8493
    5.2400    2.9446   -4.8596    0.2689    2.3446    2.1574   20.2230  -36.5650  -30.8490
    5.2440    1.8446   -4.8596   -0.9311    3.1446    2.8574   26.2230  -32.5650  -16.8490
    5.2480    3.1446   -4.2596   -1.8311    4.6446    2.2574   28.2230  -22.5650   -8.8493
    5.2520    4.4446   -3.6596    0.0689    3.4446    2.8574   42.2230   -6.5650   13.1510
    5.2560    5.2446   -2.6596    0.5689    0.7446    2.2574   32.2230   -8.5650   -4.8493
    5.2600    3.0446   -3.6596   -0.8311    0.4446    1.2574   20.2230  -26.5650  -24.8490
    5.2640    1.2446   -2.8596    0.9689    4.3446    1.5574   34.2230   -2.5650  -10.8490
    5.2680    2.1446   -2.6596   -0.9311    3.3446   -0.0426    0.2229   -8.5650   -6.8493
