 -1.5516533e-001 -2.4299265e-001  1.8607586e-001
 -2.7622689e+000 -4.4451862e-002  9.0070459e-001
  1.0522682e+000 -2.8394170e+000  1.6825252e+000
  2.6885467e-001 -1.8981459e+000  2.0567558e+000
  2.9223762e-002 -4.1767586e-001  2.0475322e+000
  7.5794869e-001  6.0479696e-001  1.4575513e+000
  1.9305659e-001 -1.7858517e+000  2.0513637e+000
 -6.0117853e-002 -1.9680626e+000  6.8839163e-001
  3.8675323e-003 -2.0944826e+000 -4.7366982e-001
  2.7904973e-001 -3.3493694e+000  8.1891718e-002
 -8.1196663e-001 -1.1954931e+000  2.9432864e-001
 -1.9141899e-001 -2.2581622e+000  1.9610324e+000
  1.5041357e+000 -1.5334792e+000  1.6319664e+000
 -3.9249538e-001 -2.0420596e+000  1.9798122e+000
  5.6497331e-001 -2.0904854e+000  8.1619395e-001
 -1.1722605e+000 -7.6818044e-001 -1.4524950e-001
 -5.4901018e-001 -1.7705210e+000 -2.8718247e-002
  8.6451105e-001 -1.9086975e+000 -1.4499782e-001
  1.8303869e+000 -2.6100712e+000  5.5426825e-001
  1.4471272e+000 -2.3512198e+000  1.4127631e+000
 -5.8085545e-001 -1.5981942e+000  2.4139551e+000
 -7.2911743e-002 -1.9037243e+000  2.7044336e+000
  1.9697678e+000 -2.7736617e+000  2.0514311e+000
  5.1465290e-001 -1.4303891e+000  6.9372347e-001
  5.6845322e-001 -1.7270099e+000 -5.6693017e-002
  2.7182361e-001 -1.2031046e+000 -6.3901022e-001
 -8.3322124e-001 -1.7454936e+000 -3.9507422e-002
 -5.4726958e-001 -8.7574775e-001 -5.1312742e-001
  2.7339065e-001 -1.5531215e+000 -3.6923448e-001
 -1.4144124e+000 -1.2377916e+000 -5.2212624e-002
  6.4226841e-001 -3.2588436e+000  5.6494186e-001
 -9.7039523e-001 -3.0334727e+000  1.0376600e+000
 -1.4995426e+000 -1.8047622e+000  6.3299997e-001
 -2.7453301e-001 -2.9379755e+000  9.9336263e-001
 -1.3890534e-001 -6.1901016e-001 -4.1962427e-002
  1.1188196e-001 -2.7033660e-001  2.1839535e-001
 -8.2245666e-001 -9.0526776e-001  1.4050979e+000
 -1.6011642e-001 -2.0113382e+000  2.0211708e+000
 -3.7022501e-001 -2.0227926e+000  1.6832726e+000
 -9.8522144e-001 -1.4147290e+000  8.6853346e-001
  2.1831933e+000 -1.9760481e+000 -4.0558147e-003
 -5.6853232e-001 -1.3757576e+000  6.7295582e-001
 -5.7997835e-001 -2.5052081e+000  1.5172353e+000
 -8.4472255e-001 -8.0453754e-001  2.4757338e-001
 -5.3982724e-001 -2.5538049e+000 -6.3563181e-002
 -2.1309600e-001 -2.1733958e+000 -1.6638566e+000
 -1.3999849e+000 -2.3705820e+000 -1.9837212e+000
  6.3338031e-001 -1.6930498e+000 -2.8118641e+000
 -4.4202453e-001 -3.3996201e+000 -7.6910957e-001
  1.1080913e+000 -3.1626887e+000 -9.4197298e-002
  4.4148557e-001 -1.6308596e+000  5.4907285e-001
  4.4701629e-001  1.4689120e-001  6.3362379e-001
 -7.8221768e-002 -2.3226588e+000  2.6721124e+000
  1.8242810e-001  4.0581411e-001  1.0522854e+000
 -3.4652114e-001 -2.6741265e+000  2.1250666e+000
  9.8060024e-001 -2.1106758e+000  4.7045434e-001
 -1.6809341e-001 -8.7235164e-001 -5.1156547e-001
  2.8333951e-001 -1.9232697e+000 -3.1315696e-003
  7.0439530e-001 -2.9354222e+000  9.5389188e-001
 -5.8093606e-001 -2.1979009e-001  2.1541351e-001
  2.5021213e-001 -2.5724053e+000  1.0792742e+000
 -1.5944786e+000 -3.0808140e+000  1.4375659e+000
 -1.0634266e-001 -1.3000001e+000 -7.4868229e-002
 -1.3275674e+000 -3.0223579e+000  1.5352863e+000
 -8.5057984e-001 -2.6327132e+000  1.7888255e+000
 -1.0004799e+000 -4.0418042e-001  1.0681228e+000
  9.6431040e-003 -3.6950460e-001  7.8288535e-001
 -1.3313739e+000 -3.4505535e-001  7.4567978e-001
 -1.2084091e+000 -2.6408468e+000  1.3613663e+000
 -6.0869283e-002 -3.0285529e+000  7.7498408e-001
 -9.1198422e-001 -3.0768631e+000  8.7978894e-001
  1.8545889e+000 -1.9578839e+000 -2.9996610e-001
 -2.1366955e+000 -8.8609216e-001  5.7135149e-001
 -3.6795180e-001 -1.2691764e+000  5.3984672e-001
  2.8451795e-001 -1.1598588e+000  4.2600866e-001
 -1.1843672e+000  7.7075339e-002  3.6329655e-001
  1.0757678e-001 -2.5238569e+000  1.8330445e+000
  1.9454413e+000 -2.0284655e+000  1.6341883e+000
  1.9922639e+000  1.1002274e-001  8.8742538e-001
  1.9007333e+000 -1.5792450e+000  1.8169102e+000
 -1.1993761e+000 -2.3460621e+000  2.6871092e+000
  4.3256585e-001 -1.0335824e+000  9.9730313e-001
  8.2039385e-001 -2.0044615e+000  9.6739948e-001
 -1.0675474e+000 -1.0159572e+000  5.3338604e-001
 -6.8300520e-001 -2.1226301e+000  3.9717795e-001
  5.2001078e-001 -3.5280638e+000  7.5123943e-002
 -6.3956637e-001 -1.3972307e+000 -1.1611003e+000
 -1.6429844e+000 -1.8321558e+000 -3.4329267e-001
 -6.9958662e-001 -9.9817804e-001 -7.8150998e-002
  1.4660590e+000 -1.3394044e+000  7.0606626e-001
  1.2058651e+000 -5.7896576e-001  1.3150584e+000
  7.1762506e-001 -1.4715214e+000  2.3284193e+000
 -2.0389014e-001 -8.2816284e-001  2.0154013e+000
 -1.1402038e+000 -7.1885430e-002  1.0820088e+000
 -9.2269593e-001 -1.7905201e+000  7.6391865e-001
 -3.4383645e+000 -1.9613238e+000  2.9138152e-001
  2.6789561e-001 -1.1211679e+000 -2.1048656e+000
  7.0128315e-001 -1.8074752e+000 -2.0279987e+000
 -2.1015093e+000 -3.5198685e+000  4.2094897e-001
 -2.2867547e+000 -2.1202871e+000  1.1519133e+000
 -1.0487765e+000 -2.4065380e+000  2.4020717e+000
  1.2919116e+000 -2.4296952e+000  2.4805506e+000
  1.0607600e+000 -6.5760126e-001  1.2611283e+000
 -2.5765572e-001 -1.9289906e+000  1.2313370e+000
 -1.1931447e+000 -2.9192225e+000  9.2543219e-001
 -1.0315960e+000 -7.6162275e-001 -7.3010315e-001
 -1.5333805e+000 -2.7531458e+000  7.9919266e-001
  6.8391106e-001 -1.9712981e+000  3.9771030e-001
  9.9897973e-001 -1.8721223e+000  5.8533360e-001
  5.2378519e-001 -1.2181548e+000  1.5521022e-001
  1.7224460e-001 -3.3725235e+000  8.7257118e-001
  1.1957954e+000 -8.0406219e-001 -1.2618931e+000
 -4.1136898e-001 -8.5038251e-001 -8.7531512e-001
  1.2869899e+000 -2.8223517e+000  1.4955017e-001
 -7.8098963e-001 -3.3561258e-001  1.7038749e-001
  9.4304157e-001 -2.1011424e+000  1.3095908e+000
  9.5029538e-001 -1.4278502e+000  1.0355978e+000
  4.0339838e-001 -2.8484197e+000  1.3742761e+000
 -4.0477224e-001 -2.8267168e+000  8.5478628e-001
 -3.3464894e-001 -1.3412066e+000 -8.9472032e-002
  1.3750279e+000 -1.0923464e+000  1.1746199e-001
  1.5859074e+000 -1.5074645e+000  1.6038883e+000
 -2.6963632e-001 -1.0158255e+000  2.8111587e+000
 -8.7175065e-001  9.0422138e-001  1.9029041e+000
 -2.6484393e-001 -2.0062068e+000  2.2305371e+000
 -1.9961990e+000 -2.3625745e+000  1.3049930e+000
 -5.1648544e-001 -1.1202219e+000 -1.1624617e+000
 -1.0200088e+000 -3.4788089e+000 -2.1392785e-001
 -1.7928608e-001 -1.7426746e+000 -6.0917999e-001
 -9.9958462e-001 -5.8973548e-001  5.0187854e-001
 -5.8059912e-001  2.0976686e-001  1.2048284e+000
  1.4845450e-001 -1.5136337e+000  2.1640522e+000
  7.8546041e-001 -1.3201306e+000  1.0733993e+000
 -4.5162054e-002 -5.2242576e-001 -3.9313104e-001
 -1.0525838e+000 -9.1756594e-001 -8.9893758e-001
 -1.1798088e+000 -2.1069388e+000 -5.1221688e-001
 -8.5456087e-001 -3.4673710e+000  5.5945562e-001
 -7.2414466e-001 -1.6939230e+000  3.5395170e-001
  1.5380866e+000 -7.6433163e-001 -2.0785019e-001
 -2.1399519e+000 -2.0966152e+000  1.4727272e+000
 -2.7674916e-001 -2.0993876e+000  3.8982118e-001
 -1.2189772e-001 -7.6958748e-001 -9.4781828e-001
 -6.4821624e-001 -1.7456963e+000 -4.6624018e-001
 -1.4101246e-001 -1.1609948e+000 -7.8870173e-001
  6.3295755e-001 -2.2876837e+000 -3.1130259e-001
 -4.0590199e-001 -8.0487403e-001 -8.6310644e-001
 -6.4111646e-001 -2.8484119e+000  4.6987584e-001
 -1.7115588e+000 -2.2714636e+000  1.1286013e+000
 -1.8753521e+000 -1.5835880e+000  1.7222382e+000
 -1.5594250e+000 -7.6323192e-001  1.7507951e+000
 -2.5633238e-002 -1.2843003e-001  7.9431739e-001
  8.5249560e-001 -2.0524405e+000  7.8243060e-001
  1.4017146e+000 -2.8948009e+000  1.7731947e-001
 -2.4092646e-002 -2.8777231e+000  7.6712646e-002
  5.9878950e-001 -3.4229235e+000  3.8194182e-001
  7.1261274e-001 -3.2058405e+000  9.7404545e-001
  2.5737800e-001 -7.8657609e-001  7.2692226e-001
  3.0159403e+000  4.4813812e-002  2.1852194e-001
  3.9956181e-001  2.0849767e-001  1.0156106e+000
  1.6652197e+000 -2.9492529e+000  1.7971597e+000
 -5.2800112e-001 -2.5074327e+000  9.8226288e-001
 -5.5064046e-001 -1.5875058e+000 -8.2697805e-001
  7.8436064e-001 -4.1188957e+000 -6.2964244e-001
  6.8185639e-001 -1.8564615e+000 -1.7437963e+000
  2.0027229e-001 -2.0261357e+000 -9.2040995e-001
  1.9526094e-001 -3.0693045e+000  9.2504619e-002
 -2.6659316e+000 -1.9805494e+000  2.4761794e-001
 -1.5717111e+000 -3.1399535e+000  2.4602828e-001
  1.5957549e-001 -2.2232317e+000 -7.3133168e-001
 -2.3579829e-001 -2.5938155e+000  3.5641888e-001
  4.5233348e-001 -1.6722060e+000  1.2011242e+000
  4.2268435e-001 -1.3647134e+000  2.6718923e+000
  1.6689758e+000 -4.9147008e-001  2.7314767e+000
 -1.0200884e+000 -1.6270671e+000  3.8458849e+000
 -8.1146266e-001 -1.4639598e+000  2.7698833e+000
  6.4628377e-001 -1.9064143e+000  1.7357421e+000
 -7.6261660e-001 -2.4690253e+000  2.0132430e+000
  3.8793311e-001 -2.0987463e+000  1.3600939e+000
  1.8311169e-001 -2.7447343e+000  1.5603224e+000
  3.5245469e-001 -5.0511436e-001 -8.9068593e-002
 -1.1271334e-001 -1.4579096e+000  1.0866903e-002
 -5.8770305e-001 -1.1164560e+000 -6.2160940e-001
 -2.3887026e-001 -1.1062628e+000 -1.1620265e+000
 -1.8613551e+000 -1.3921920e+000 -5.5929198e-001
 -2.9115259e-001 -1.8067950e+000 -2.1177621e-001
 -2.8025880e-001 -1.6119114e+000  4.6466638e-001
  1.1357736e+000 -1.1362204e+000  2.4382616e-001
 -3.1835620e-001 -5.9108556e-001  1.6728808e-001
 -6.3511913e-001 -1.9185959e+000  5.0721589e-001
 -2.1787858e-001 -2.2337326e+000  4.3364462e-001
 -3.3248392e-001 -2.1878309e+000  9.5748034e-001
  2.4492820e-001 -2.3214253e+000  1.7990605e+000
 -6.5076685e-001 -1.4347180e+000  2.3348147e+000
  5.7621207e-001 -8.9470074e-001  1.7819057e+000
  1.3196948e-001 -6.4524213e-001  1.0562914e+000
 -6.6517575e-001 -2.2340555e+000  1.0099882e+000
  5.4692223e-001 -3.2163424e+000  3.2422816e-001
 -4.5766724e-001 -2.7722900e+000  2.6763540e-001
 -6.8617628e-001 -2.8669177e+000  1.1668031e+000
  1.0405262e+000 -2.0501217e+000  1.4473571e+000
  6.8985629e-001  1.1950223e-001  1.1498335e+000
  1.0594191e+000 -2.3491545e+000  2.0229679e+000
  1.3712526e+000 -3.4180667e-001 -6.1933098e-001
  5.0381516e-001 -3.4240833e+000 -5.6839362e-001
 -2.5893502e+000 -1.6283549e+000 -1.8072920e+000
 -3.1296570e-001 -2.3554889e+000 -1.8317745e+000
 -1.3804642e+000 -1.3316030e+000 -6.9180015e-001
 -4.7438383e-001 -2.7601489e+000  1.6912604e+000
  2.3226917e-001 -2.0608890e+000  2.7825176e+000
  7.8416441e-001  4.6868411e-003  2.6142963e+000
  1.7254993e+000  4.6130118e-001  2.5366182e+000
  1.6145978e+000 -2.2911468e-001  2.6860619e+000
  4.6932220e-002 -2.2569754e+000  3.2611894e+000
  4.4965560e-001 -1.0581010e+000  1.0518496e+000
 -1.0579247e+000 -2.6282537e+000  9.6850846e-001
 -2.5107426e-001 -4.5180574e-001 -8.6451301e-001
 -4.0822601e-001 -1.1183062e+000  2.6836611e-001
  1.3841672e+000 -1.7128976e+000  1.4157438e+000
  4.2423114e-003 -5.9344898e-001  2.1468545e+000
  2.9557709e-001 -1.0376842e+000  2.3107074e+000
  4.5988345e-001 -3.8914927e-001  1.1571719e+000
  1.2487660e+000 -1.7029379e-001 -5.2351301e-002
 -1.2663194e+000 -5.9577452e-001  5.1151998e-001
 -1.3092443e-001 -1.7317219e+000  1.1341394e+000
 -6.6785456e-002 -1.2677739e-002  8.0409409e-001
 -5.4039016e-001 -1.8007067e+000  2.1153182e+000
  9.7277996e-001 -3.2179702e-001  3.9943863e-001
  1.3017441e+000 -3.2148874e+000  9.4331476e-001
 -8.6922051e-001 -1.7390642e+000  1.0483664e-001
 -3.0588793e-001 -1.9452247e+000  1.7834809e-001
  7.4996243e-002 -2.0133419e+000  9.9748933e-001
 -1.0676899e+000 -1.4909411e+000  2.2785563e+000
  2.0468183e+000 -1.8271774e+000  2.6662573e+000
  1.2137005e+000 -6.6796045e-001  2.7973798e+000
  1.4030738e+000 -1.2543986e+000  2.9354529e+000
  4.8565847e-001 -9.4517268e-001  2.3814616e+000
  6.2174170e-002 -1.6415069e+000  1.9929234e+000
 -9.9354967e-001 -2.8236028e+000  2.2178152e+000
 -1.8433096e+000 -1.5872105e+000  1.6575236e+000
  4.0493480e-001 -7.6475285e-001  1.0523305e+000
 -1.8870755e-001  3.8120219e-001  1.1465006e+000
  8.7548740e-001 -1.5638313e+000  1.8332921e+000
  7.2191056e-001 -1.8991014e+000  1.1149121e+000
 -7.9834199e-001 -1.5888900e+000 -6.7846410e-003
 -1.8773380e+000 -6.9244540e-001 -1.1731174e+000
 -7.1522149e-001 -1.6154771e+000 -1.0947235e+000
  5.8435037e-001 -2.9793777e+000 -1.6916907e-001
 -3.1172434e-002 -2.2248606e+000  1.2070457e-001
 -9.3952312e-001 -3.3408606e+000  1.0018126e+000
 -1.2720495e+000 -1.7232831e+000 -1.2014553e-001
 -5.9441881e-001 -1.7690273e+000 -4.8702294e-001
  3.1078880e-001 -1.0095041e+000 -7.6396500e-001
  1.1256541e-001 -8.7925443e-001  1.4146379e-001
 -3.9112163e-001 -2.6890027e+000  2.1821610e+000
  8.4085392e-001 -2.3733352e+000  2.0608793e+000
  1.0421121e+000 -2.0907937e+000  1.5745557e+000
  3.8871007e-001 -1.4167942e+000  7.2507880e-001
 -3.5783273e-001 -2.1523397e+000  6.5954911e-001
 -8.5411603e-001 -1.0914107e+000 -1.1921846e-001
  8.0002706e-001 -2.5679566e+000  3.2694695e-001
  6.0550565e-001 -2.9313108e+000  1.0376953e+000
 -2.2389637e-001 -2.0000618e+000  1.3122694e+000
 -3.9153406e-001 -8.4368360e-001  1.1606120e+000
  5.6324212e-001 -8.3252634e-001  1.1405530e+000
  4.1709505e-001 -8.3955664e-001  1.2747831e+000
  8.0760233e-002 -2.3682711e+000  2.1045684e+000
  8.4255268e-001 -2.4203136e+000  1.6898711e+000
 -2.7735987e-002 -1.9263374e+000  1.4464420e+000
 -2.6476661e-001 -6.0436547e-001  8.2141543e-001
  8.1344594e-001 -1.5495889e+000  1.3562771e+000
  6.8211630e-001 -2.6687326e+000  2.4549047e+000
 -5.7186067e-001 -1.8863816e+000  2.7607473e+000
  4.8343427e-001 -7.8001022e-001  2.1180009e+000
  2.4857011e-001 -1.0049977e+000  2.4762177e+000
 -6.1442486e-003 -1.2180790e+000  2.7749299e+000
  1.4867994e+000 -1.1637848e+000  2.3411877e+000
 -1.7445462e-001 -2.0619883e+000  3.1652366e+000
  7.7730241e-001 -2.2635839e+000  2.7345148e+000
  1.4101618e-001 -7.2310737e-001  1.5660661e+000
  1.0958216e+000 -2.3896858e+000  1.4242112e+000
 -7.6253216e-001 -2.9236060e+000  1.4327726e+000
  1.1287080e+000 -2.0435753e+000 -3.9584487e-003
 -1.1249960e+000 -9.0655890e-001  1.4822324e-001
 -9.5740242e-001 -1.8358448e+000  1.2210537e+000
  1.4485615e+000 -2.1889382e+000  1.4552066e+000
  4.6474430e-001 -1.8689959e+000  1.8518889e+000
 -4.6775494e-001 -1.6348259e+000  1.6112880e+000
 -3.6354455e-002 -4.8519431e-002 -9.5795059e-002
  1.9031819e+000 -1.2367721e+000 -4.3164568e-001
 -2.6513799e-001 -1.5337272e+000  5.9755287e-001
  1.6113075e+000 -2.3080526e+000  1.2874966e+000
 -3.1200252e-001  1.6173978e-001  1.3772446e+000
  6.4587557e-001 -1.8682803e+000  2.9029171e+000
  1.7191760e-001 -5.2579753e-001  2.7304270e+000
  3.2934012e-001 -2.8199424e-001  2.5336945e+000
  1.5812762e+000  1.2264086e-001  1.3841931e+000
  1.5136091e+000 -2.6111665e+000  1.8628127e+000
  1.6124545e+000 -2.2004366e+000  5.8641947e-001
  1.0906686e+000 -2.0624699e+000 -5.3574010e-002
 -2.8571593e-002 -2.4319047e+000  1.1507559e-001
  1.3293555e-001 -1.3052950e+000 -6.2906572e-001
 -1.3487055e+000 -3.0520072e+000  7.9383006e-001
  3.3690139e-001 -9.1605240e-001 -5.4948546e-001
  6.8923762e-001 -9.4972571e-001 -1.7482382e-001
 -1.2894980e+000 -1.7790365e+000  1.3363079e+000
  1.4619411e+000 -1.6415805e+000  8.8465769e-001
 -1.0327917e+000 -1.7479760e+000  1.7079195e+000
 -3.6731969e-001 -1.8258507e+000  1.3199191e+000
 -2.4988303e-001 -2.7870120e+000  1.4653409e+000
 -1.4012121e+000 -8.6892742e-001  6.1281211e-001
 -1.9086769e-001 -9.4982461e-001  4.0263773e-001
  1.6410187e+000 -2.9268935e+000  1.0194213e+000
 -6.9740706e-001 -2.4736912e+000  1.3241207e+000
  6.3058270e-001 -2.7347295e+000  1.0358021e+000
  8.1450385e-001 -6.0750629e-001  1.5126161e-001
  1.5480331e+000 -2.3001596e+000  1.5577029e+000
  5.3499580e-001 -1.3932994e+000  2.0664319e+000
  9.1250466e-001  4.5559475e-001  1.2373243e+000
 -3.4936792e-001 -1.8900562e+000  2.5221868e+000
 -3.6656413e-001  2.8835501e-001  6.8759245e-001
  1.5875962e+000 -1.2139539e+000  3.0797645e-001
 -1.5250376e+000 -3.1233397e-001  2.8480875e-001
 -1.2923562e+000 -6.8870649e-001  2.2141775e-001
  2.1050132e+000 -6.0246507e-001 -8.8898713e-001
 -7.1537923e-001 -1.0386352e+000  7.1723286e-002
 -1.8468420e+000 -2.4459179e+000  1.1894014e+000
 -3.7014242e-001 -3.0818835e+000  1.1617964e+000
 -1.3232041e+000 -1.6164667e+000  4.5265809e-001
 -1.9878172e-002 -2.8786957e+000  2.9082294e-001
  9.3515021e-002 -3.7092910e+000  1.5732109e-001
  1.3179694e+000 -1.8121045e+000 -1.4617278e+000
 -1.1442084e+000 -9.5297063e-001 -9.7993223e-001
 -1.9751418e+000 -2.3150475e+000  7.2915685e-001
  1.4583820e+000 -1.4137871e+000  2.4081445e-001
  1.9908424e+000 -1.7483234e+000  1.0057968e+000
  4.3310532e-001 -1.9976760e-001  7.6712859e-001
 -1.5925776e+000 -2.4677923e+000  2.0427524e+000
 -5.6083111e-001 -2.2481951e+000  8.3745426e-001
 -1.3320011e+000 -3.1754430e+000  1.0997765e+000
  1.7058947e-001 -2.6047413e+000  6.8561393e-001
  9.2242740e-001 -1.1149530e-001 -6.2260903e-003
  2.7246356e-001 -2.6479019e+000  2.3466309e+000
 -5.3376906e-001 -6.1406812e-001  1.8469799e+000
  1.6517975e+000 -2.4211563e+000  2.1952623e+000
 -8.9903991e-001 -8.6302510e-001  1.9342600e+000
  4.5591061e-002 -2.4168558e+000  2.2652781e+000
 -7.6762309e-001 -1.5926192e+000  1.4249783e+000
 -1.3028589e+000 -2.0946985e+000  7.6344178e-001
 -3.4122882e-001 -3.2962904e+000  4.7873503e-002
 -1.1307159e+000 -1.8806634e+000 -9.8310775e-001
 -1.0297862e+000 -2.4391499e+000 -4.0102357e-001
 -1.5259231e+000 -1.1312073e+000 -1.9360745e-001
 -7.7052344e-001 -4.2767036e-001  3.6324718e-002
  4.3678782e-002 -3.7223228e-001  5.1533216e-001
 -6.1329228e-002 -1.4704930e+000  1.7681429e+000
 -1.2171421e+000 -9.4628103e-001  2.1520935e+000
  9.5995187e-001 -2.2155621e+000  2.0633763e+000
  1.4714111e+000 -2.9554553e+000  1.7328221e+000
 -1.1588501e+000 -1.1286243e+000  8.7379507e-001
  1.7969535e+000 -8.2281589e-001 -4.0119528e-001
  1.0224790e+000 -1.6023307e+000  2.9533531e-001
 -2.8935643e-001 -2.1876222e+000  1.1970988e+000
  7.2191272e-001 -1.4820037e+000  6.6444098e-001
  3.1709242e-001 -1.2741861e+000  5.6561673e-001
 -1.1210483e+000 -1.8191442e+000  1.0799294e+000
  6.5890432e-001 -2.2433243e+000  8.7863285e-001
 -1.9257064e+000 -1.2022792e+000  1.5091990e+000
 -1.3191796e+000 -2.0947058e+000  2.5308214e+000
  5.4226624e-001 -2.0826611e+000  2.5777601e+000
 -7.8301357e-001  3.7630687e-001  1.7284773e+000
  8.8275840e-001 -1.9248338e+000  2.0435062e+000
  4.9627286e-001 -2.9230049e+000  1.8447261e+000
  8.2270616e-001 -2.7173317e+000  7.8135408e-001
 -4.2214056e-001 -1.4877722e+000 -6.2445282e-002
  7.0619296e-001 -2.8940607e+000  3.0439101e-001
 -1.4482680e+000 -1.9516620e+000  5.9618556e-001
  7.6042265e-001 -7.7194193e-001 -4.5267495e-001
  1.5643397e+000 -6.6807477e-001 -6.8014093e-001
  5.4364902e-001 -4.2962500e-001 -5.9993885e-001
 -1.8069973e+000 -3.1238020e+000  1.3797331e+000
 -3.1513451e-001 -2.4967400e+000  5.7867095e-001
  9.5870889e-001 -9.4852784e-001 -5.2807550e-001
  6.7292689e-001 -7.8238866e-001 -4.0619135e-001
  2.6293438e-001 -8.2771542e-001 -2.0935335e-001
  5.1861639e-001 -4.3775503e-001 -4.7661657e-001
  3.5309051e-001 -3.2975796e+000  1.2371644e+000
  2.0224170e-001 -2.7493928e+000  1.2562331e+000
  1.9633292e-001 -4.2161293e-001  1.5932645e-001
  1.2513327e+000 -1.2989326e+000  1.1383354e-001
  4.3684381e-001 -2.5430795e+000  4.9871205e-001
 -4.5154731e-001 -2.8647968e+000  5.8488236e-001
  3.9102164e-001 -2.7609198e+000  6.2572282e-001
  1.3120426e+000 -1.9043630e+000  8.7426214e-001
  1.0958433e+000 -2.3864184e+000  2.0541899e+000
  2.8885688e-001 -1.4513418e+000  1.7068877e+000
  1.4167319e-001 -1.0732232e+000  4.7702687e-001
 -1.8385665e+000 -2.4590241e+000  4.8949025e-001
  2.4627697e+000 -1.1834458e+000 -1.9727436e+000
  6.1377961e-001 -3.4620064e+000  1.7740809e-001
  3.1908998e-002 -2.5692828e+000  8.9816489e-001
 -1.6615413e-002 -1.3747200e+000  1.2380284e+000
 -6.8951550e-001 -1.8516438e+000  2.0115356e+000
  4.4694869e-001 -2.2877070e-001  3.8998830e-001
 -7.6474500e-001 -2.6430781e+000  1.1946553e+000
  2.7152496e-002 -3.0301037e+000  5.8505254e-001
  6.9327352e-001 -2.1506631e+000 -9.1481417e-002
  9.2257458e-001 -4.2607714e-001 -6.9705827e-001
 -5.7535093e-001 -1.9584129e+000  9.0093466e-001
 -5.4869438e-001 -1.6428992e+000  7.9661461e-001
 -1.1754677e+000 -2.3942881e+000  1.1335513e+000
 -1.6890086e+000 -3.1866322e+000  1.2810551e+000
 -6.8519876e-001 -3.4463001e+000  8.4277769e-001
  1.1778327e+000 -2.2545456e+000 -8.6985465e-002
 -2.2570977e-001 -1.1687405e+000  6.2642094e-001
  1.1122179e+000 -2.2832623e+000  2.0257050e+000
 -2.8105971e-001 -1.4498916e+000  2.6063017e+000
 -1.6921677e-001 -7.4799706e-002  1.4251498e+000
 -9.8106103e-001 -6.0468620e-001  7.2669904e-001
  1.0354432e+000 -6.3675693e-001 -9.2022479e-001
 -1.2352854e-001 -3.1691529e+000  5.5239031e-001
  1.2375169e+000 -3.1897384e+000  8.9381261e-001
  4.6468173e-001 -1.3677797e+000  1.0189750e+000
  1.1878821e-001 -7.4778940e-001  1.0772488e+000
 -1.2427913e+000 -1.8384713e+000  1.5918800e+000
 -6.6597080e-001 -1.7189847e+000  6.3312906e-001
 -2.8188071e-001 -1.9384748e+000  1.3888074e-001
  2.2172335e-001 -1.8633657e+000 -7.8904165e-002
  2.7907713e-002 -2.9210703e+000  1.0063392e+000
  1.2493645e-001 -3.2007392e-001  4.4488494e-001
  2.8239340e+000 -1.5297553e-001  5.2428898e-001
  8.2598856e-001 -7.9704370e-002  1.4933099e+000
 -2.7858638e-001 -1.2889288e+000  2.0835959e+000
  3.1470250e-001 -1.5564216e+000  1.0185689e+000
 -4.3645680e-001 -1.7728825e+000  2.0347769e-001
  1.5121231e-001 -2.7461360e+000 -8.1361507e-003
 -1.9147136e+000 -2.0381990e+000  5.6316308e-001
  1.4711729e-001 -1.9103302e+000  1.0348237e+000
 -4.9936817e-001  4.1342857e-001  9.1015313e-001
  5.5026501e-001 -2.0452360e+000  1.6915199e+000
  5.9161288e-001 -3.1238111e+000  6.0601484e-001
  1.1904371e-001 -3.2028987e+000 -1.3964486e+000
 -7.5539808e-001 -2.1929115e+000 -3.1125979e+000
 -1.2484474e+000 -4.0049367e+000 -1.9997842e+000
 -1.0431762e-001 -3.6750879e+000 -1.4016489e+000
 -8.5651241e-003 -2.7211175e+000 -5.7026780e-001
 -1.6147301e+000 -1.0503050e+000  6.3696656e-002
  4.5343801e-001 -3.0015394e+000  1.2219181e+000
 -1.6792720e-001 -3.2106179e-001  3.3432769e-001
  1.0420622e-001 -2.9676349e+000  1.8610519e+000
  6.7466318e-001 -1.6440035e+000  1.0461952e+000
  3.9095204e-001 -7.1057489e-001  5.2563581e-001
 -2.7632126e-001 -2.8786283e+000  1.5383837e+000
 -9.9101608e-001 -4.7628103e-001 -2.0725765e-001
  7.0672375e-001 -3.8235003e+000  1.5639439e-001
 -3.0055009e+000 -3.7340095e+000  1.6278191e-001
  3.7520487e-001 -2.2958719e+000 -1.9475669e+000
 -1.3994957e+000 -3.8886607e+000  3.2311609e-002
 -3.3093916e-001 -4.6302699e-001 -5.7016346e-001
  5.2623007e-001  1.6034365e-001  5.6274088e-001
  1.0795046e+000  2.6915472e-001  1.4044618e+000
  3.4120446e-001 -3.1182568e-001  1.8419296e+000
  6.3837201e-002 -1.2704850e-001  7.0492345e-001
 -2.4317691e-001 -1.6665103e+000  1.8968124e-001
 -4.8135075e-002 -2.1463356e+000 -3.1279225e-001
  5.0845369e-001 -6.8805225e-001 -6.5514353e-001
 -1.7924503e+000 -2.0209002e+000  2.1439380e+000
  1.4705637e+000 -4.6537212e-001  1.5578644e+000
 -3.6040141e-001 -1.1645996e+000  2.4233230e+000
  1.1217928e+000 -2.5147835e+000  1.6016480e+000
 -8.5819021e-001 -1.3552259e+000  8.5884137e-002
  1.3830913e+000 -1.9371248e+000 -1.0953574e+000
 -1.3046969e+000 -2.0117010e+000 -3.2818633e-001
 -1.7682653e+000 -5.0917422e-001 -5.9281055e-001
 -9.7164141e-001 -1.1041648e+000 -2.7898499e-001
 -6.3197017e-001 -1.9132763e+000 -1.3655838e-001
  1.7902258e-001 -2.0403081e+000 -5.6715943e-001
  7.3995238e-001 -1.9775099e+000 -6.1656369e-001
  5.5209741e-001 -3.4136055e+000  9.3203095e-001
 -1.1792286e-001 -1.2859618e+000  1.0594321e+000
  6.1216895e-001 -6.5460334e-001  1.5458002e+000
 -4.1337577e-001 -1.0965994e+000  2.6384472e+000
  8.8436930e-001 -4.4890025e-001  1.8206619e+000
 -1.7019461e+000  3.0535406e-001  1.4739378e+000
 -6.2452543e-001 -1.3380319e+000  1.2981786e+000
  1.2311852e+000 -2.2167413e-001 -3.0233266e-001
 -1.9953968e-001 -6.3758704e-001  9.1121615e-002
  2.1706948e-002 -7.2077707e-001 -1.0233646e-001
  9.4223337e-002 -4.8811802e-001 -4.0053180e-001
  2.2215866e+000 -1.4243383e+000 -3.8770963e-001
  5.4552522e-001 -1.4605000e+000  6.3099594e-001
  1.2596120e+000 -6.3930852e-001  8.3164948e-001
 -1.1524818e+000 -6.2661244e-001  2.2659294e+000
 -3.5026543e-001 -1.0499398e+000  2.6563435e+000
 -4.4916791e-004  2.8649715e-001  1.7639469e+000
  1.4508924e-001 -2.4010027e+000  2.7749682e+000
 -1.3697527e+000 -2.2118184e+000  2.6469610e+000
  8.4374361e-001 -1.7565806e+000  1.4997979e+000
  2.3812102e+000 -2.3441062e+000  1.3181282e+000
  6.1040198e-001 -1.7822109e+000  1.5287276e+000
 -1.5677025e+000  3.7289455e-001  8.6051150e-001
  1.1815173e+000 -6.4230201e-001  2.8839204e-001
  1.4819127e+000 -4.3876384e-001 -3.2681864e-001
  3.0771087e-001 -2.6134587e+000  9.6055798e-001
  5.6248124e-001 -1.9493790e+000  6.9746412e-001
  5.9562605e-001 -4.0189555e-001  3.3803056e-001
  3.8253088e-003 -2.2706374e+000  2.1256821e+000
 -2.6323728e-001  4.4184952e-001  1.2828897e+000
 -1.1539662e+000  3.8338790e-001  1.7656564e+000
  2.0777225e+000 -1.0661465e-001  8.1132611e-001
 -1.2505562e-002 -2.1161846e+000  1.6807188e+000
 -2.3601428e-001 -1.5130000e+000  5.2573698e-001
  3.4350259e-001 -2.2302932e+000  8.6089895e-002
 -1.1465346e+000 -5.9716266e-001 -7.7953810e-001
 -1.7167312e-001 -2.4664461e+000 -2.6659101e-001
  1.1345461e+000 -3.1996532e+000 -1.5114626e-001
  4.8084394e-001 -2.1983817e+000  4.6055644e-002
 -7.3562861e-001 -2.9359137e+000  1.6017190e+000
 -2.7416201e-001 -1.2119344e+000  1.0893935e+000
  4.8238863e-001 -1.5397498e+000  9.1084745e-001
  4.3273469e-001 -6.2301906e-001 -2.3336599e-001
  3.8874357e-001 -6.9517062e-001 -7.4314024e-001
 -9.6162547e-001 -3.6296363e-001 -4.1540597e-001
  1.3591535e+000 -9.6229816e-001  1.5981693e-001
 -4.6239133e-001 -8.4415689e-001  1.7650927e+000
  5.3047494e-001 -1.4357465e-001  1.8643121e+000
  9.1957657e-001 -1.6753134e+000  2.5593098e+000
  5.2625332e-001 -2.4382577e+000  2.4927138e+000
 -7.6056180e-001 -1.1846735e+000  1.5243707e+000
  1.2357150e+000 -2.0226861e+000  9.9321847e-001
  1.1755178e+000 -1.6290159e+000  5.6128801e-001
  9.7541024e-001 -2.9321639e+000  1.3015513e+000
 -3.1174255e-001  4.0929635e-002  5.4036681e-001
  6.9799252e-001 -8.2401297e-001  1.6906107e+000
  6.3755364e-001 -1.6502739e+000  2.9442924e+000
 -1.6289546e+000 -4.7229790e-001  2.7227193e+000
  1.2865111e+000 -1.2604580e-001  3.6610527e-001
  1.1209322e+000 -2.8010567e+000  1.7188982e-001
 -2.6318004e-001 -3.4002755e+000  1.7973453e-002
 -8.4254286e-001 -2.5863896e+000  1.8946192e-001
  1.3439449e+000 -1.1497987e+000  1.1696216e-001
  1.0669923e+000 -2.6196398e+000  2.2259981e+000
  7.7436845e-001 -1.9734290e+000  2.4822542e+000
  9.7165038e-001 -4.0998726e-001  1.3770361e+000
  8.0781712e-001 -9.7173301e-001  1.2511513e+000
  1.0613998e+000 -2.4692938e+000  1.7017069e+000
 -4.5267059e-002 -7.8007187e-001  1.1024867e+000
 -1.7619792e-001  7.2412158e-002  7.7032640e-001
 -1.3542315e+000  3.7096977e-001  8.9131768e-001
  6.2027177e-001 -2.4707454e+000  1.6256490e+000
  9.4709244e-001 -6.9942349e-001  3.0260621e-001
  1.2616702e+000 -2.1881173e+000  9.6862325e-001
  1.4307117e+000 -1.6401384e+000  9.5840549e-001
  9.4051243e-001 -2.3670313e+000  2.0109147e+000
  4.4520664e-001 -1.5918149e+000  2.1038546e+000
  3.1662560e-001 -1.2926734e+000  1.9969351e+000
 -6.8297135e-001 -1.3752762e+000  2.0650927e+000
 -5.2732707e-002 -1.1286291e+000  1.4353751e+000
  9.9329692e-001 -8.9835239e-001  7.7089236e-001
 -1.1988562e+000  2.1936526e-002  7.7439115e-001
 -1.1836379e+000 -1.8100827e+000  1.8298192e+000
  6.0376331e-001 -2.0883305e+000  1.7767891e+000
  1.5012495e+000 -1.5505583e+000  1.7341346e+000
 -8.8530345e-001 -2.7986561e-001  2.3073475e+000
  2.1121563e+000  8.7998390e-003  1.7776684e+000
  1.2820135e+000 -4.3194248e-001  2.2454737e+000
  8.0202075e-002 -2.3622219e+000  2.9879658e+000
  1.1142943e+000 -1.6151645e+000  1.2252981e+000
  3.8428202e-001 -2.5166043e+000  8.5120007e-001
  9.8284393e-001 -2.6978246e+000  2.0746835e-001
 -5.3822259e-001 -7.1148212e-001 -3.4916663e-001
  5.3667804e-001 -2.9208113e+000  1.0312865e+000
 -1.3332862e-001 -1.8427319e+000  1.0283138e+000
 -5.2462326e-001 -1.3641114e+000  8.2869466e-001
  6.5752069e-001 -2.4680004e+000  6.7474112e-001
 -6.6934082e-001 -1.6368059e+000  1.3358355e-001
 -2.0359799e+000 -1.7580750e+000  3.5593708e-001
 -1.7073609e+000 -6.1602167e-001 -2.0277327e-001
  6.8795107e-001 -6.7159404e-001 -3.5280553e-001
 -6.3157146e-002 -1.9651576e+000  1.2185113e+000
  1.5412928e+000 -1.4976958e+000  1.1471570e+000
  5.8657422e-001  6.6373892e-002  9.6793606e-001
 -2.0702068e+000 -2.6848497e-001  2.0410596e+000
 -1.0424979e+000 -3.6249559e-001  1.8703638e+000
  8.4780873e-001 -1.6870684e+000  2.1582943e+000
  9.3385815e-001 -2.4288402e+000  2.6259275e+000
  1.2981099e+000 -1.7974829e+000  2.0566022e+000
  5.2034183e-001 -1.8783439e+000  1.8544769e+000
 -2.4111540e-001 -2.8043647e+000  2.0654355e+000
 -3.7789940e-001 -6.4322865e-001  9.0792854e-001
 -1.6954415e+000 -2.0358683e+000  2.5124203e+000
  6.2893573e-001 -5.7240001e-001  1.5368844e+000
 -9.6693680e-002 -9.6536798e-001  1.7567310e+000
 -1.4773841e-001 -1.0794503e+000  1.0067246e+000
  6.0092440e-001 -2.3363641e+000  5.8446092e-001
  9.5979371e-002 -1.9652310e+000  1.5251577e-001
 -1.2634366e+000 -3.1550818e+000  1.4828248e+000
 -3.7342799e-001 -1.7314493e+000  1.2056391e+000
 -2.1025977e-001 -2.1966486e+000  2.1309448e+000
  9.0706554e-001 -1.4077736e+000  1.8619505e+000
  4.8229892e-001 -7.4872675e-001  1.8501542e+000
  2.1880463e+000 -1.2011961e+000  1.7048146e+000
  1.1838341e+000 -8.5076006e-001  1.7507531e+000
  4.9961744e-001 -1.3583356e+000  1.9397284e+000
  1.1661783e+000 -1.3648834e+000  1.1641091e+000
  7.6266893e-001 -7.6857264e-001  1.3898729e-001
 -2.9002449e-001 -7.4533959e-001 -2.6843769e-001
 -7.9759426e-001 -2.7983165e+000  8.2162415e-001
 -1.2138967e+000 -2.2860219e+000  1.1894082e+000
 -8.5925953e-001 -1.1799888e+000  1.4024762e+000
 -9.4425834e-002 -7.7766901e-001  1.6071241e+000
  2.3414173e-001 -1.0687942e+000  1.4754077e+000
 -1.9814340e+000 -1.1233527e+000  1.1143455e+000
 -1.3614433e+000 -7.9381391e-001 -4.1049227e-001
  1.7745785e-001 -2.2564233e+000 -6.0710949e-001
 -1.2330311e+000 -1.7758243e+000 -3.6681924e-003
 -2.9647992e-001 -1.8480161e+000  9.7012999e-001
 -1.4560369e+000 -7.6531536e-001  1.7581437e+000
  2.2274499e+000 -1.8607243e+000  1.3905454e+000
 -2.8642824e-001 -8.9761360e-001  5.2277470e-001
  1.0961873e+000 -2.0024027e+000 -7.0491378e-001
 -6.2307926e-001 -3.2594364e+000 -3.5111834e-001
 -2.7605546e-001 -2.5437668e+000 -4.8775641e-001
 -1.7091043e-001 -2.7343373e+000  6.6262718e-001
 -1.9328170e-001 -1.7352714e+000  1.1290261e+000
 -1.1910130e+000 -1.0292094e+000  1.5681085e+000
  3.0637150e-001 -1.3217011e+000  1.6894611e+000
  1.2511192e+000 -1.9515664e+000  2.3139917e+000
  2.0040425e+000  2.2176482e-001  1.3964808e+000
  2.7999244e-001  2.6181191e-001  1.5543489e+000
 -1.2855627e+000 -1.6364018e+000  1.7121206e+000
  5.9828906e-001 -5.2895678e-001 -9.9796143e-001
 -1.0571144e-002 -1.0065735e+000 -1.2894226e+000
 -7.4493357e-001 -1.3969841e+000 -9.8142446e-002
  7.5273988e-001  4.3570176e-002  4.2475188e-001
 -1.4839080e-001 -2.0043723e+000  3.0871879e+000
 -6.5229358e-001  1.4766461e-001  1.9865629e+000
 -3.7261800e-001 -2.1537684e+000  1.7751556e+000
 -7.8732243e-001 -1.5604049e+000  3.8358626e-003
  1.2347189e+000 -3.7112642e+000 -5.5706671e-002
 -1.2431891e+000 -7.0248835e-001 -4.5593420e-001
  1.5264406e-001 -2.0574480e+000  9.3021977e-001
 -4.7304510e-001 -1.1421022e+000  1.3385497e+000
 -1.1581407e-001 -5.0329651e-002  7.9619374e-001
  5.1066045e-001 -1.8334002e+000  1.4316896e+000
 -1.9624738e+000 -2.6955648e+000  2.3791784e+000
  8.4804523e-001 -1.6734594e+000  6.4053081e-001
 -6.6667670e-001 -2.1131500e+000  4.6685832e-001
 -1.4801711e-001 -2.5747441e+000 -4.1818683e-001
  5.8587859e-001 -3.2197256e+000 -7.7976768e-001
  2.1516488e-001 -2.8659209e+000 -5.2773953e-001
 -7.5255720e-002 -1.1903534e+000 -5.1931087e-001
 -5.5405058e-001 -3.1014771e+000  1.2885119e+000
  1.4355382e-001 -2.9492197e+000  1.2080534e+000
 -2.5393695e-001 -1.6121174e+000  5.5627368e-001
 -9.9283414e-001 -2.8378341e+000  1.3909689e+000
  3.4387804e-001 -1.0387168e+000  3.3940993e-002
 -1.0740972e+000 -2.3822144e-001 -1.1926387e-001
 -8.6374491e-001 -1.8533334e+000  5.3087277e-001
 -2.7331143e-001 -1.7546312e+000  2.3984226e-001
 -1.0881830e-001 -3.3877354e-001 -5.3970801e-001
 -5.4816077e-001 -3.0858267e+000  1.0803778e+000
  7.5927349e-002 -2.6452966e+000  5.5592809e-001
 -1.1547685e+000 -1.8936753e+000  1.8749419e-001
  1.6486541e+000 -3.2126881e+000 -1.9782564e-001
 -1.0567194e+000 -2.9812651e+000  4.1921712e-001
 -1.0530896e-001 -2.9537617e+000  5.7504434e-001
 -2.0598597e+000 -2.3683342e+000  1.4645068e+000
 -1.6944488e-001 -1.6494120e+000  1.0373374e+000
  3.6749527e-001 -2.7125103e+000  1.4820958e+000
  1.8495398e-001 -2.6208975e+000  1.1286063e+000
  1.0522657e+000 -1.9037535e+000  1.5139370e-001
 -1.2118453e-001 -7.8064377e-001 -1.0297584e-001
  5.7551075e-001 -5.7796652e-001  6.6247216e-002
 -6.7743778e-001 -6.4764905e-001  1.0898630e+000
 -1.4589375e-001 -7.9076349e-001  1.3905135e+000
  2.5414010e-001 -2.5060705e+000  2.0381678e+000
 -1.7203668e-001 -1.4493605e+000  1.0483761e+000
  7.8646562e-001 -2.9932053e+000  1.1423177e+000
 -3.7234912e-001 -4.5427115e-001  3.0572963e-003
 -3.7194801e-001 -2.4502608e+000  1.1808504e+000
 -3.9555536e-001 -3.8705252e-001 -2.2844625e-002
 -1.1174771e+000 -2.0928923e+000  6.2174718e-001
 -3.0912385e-001 -1.5794040e+000 -3.4452728e-001
 -5.9749399e-001 -9.0793160e-001 -5.3656003e-001
  1.3506669e+000 -1.3419425e+000 -1.0202759e-001
 -1.3208153e-001 -1.8879148e+000  1.4391860e+000
  1.9289072e+000 -9.4627587e-001  6.0577798e-001
 -3.6734665e-001 -1.8557663e+000  1.2562561e+000
 -2.5295757e-001 -1.8237910e+000  5.9649163e-001
 -4.0596796e-003 -3.0791181e+000  1.1703053e+000
  8.8210418e-002 -1.2755585e+000  9.0182961e-001
 -5.1302578e-001 -4.3134486e-001  1.5324717e+000
  2.4605728e-001 -4.6202136e-001  1.6193706e+000
  1.4568142e-001 -1.8252447e+000  1.6628506e+000
  2.4053942e-001 -1.6300117e+000  2.6893512e-001
 -5.3845318e-001 -2.6915685e+000  1.4756004e-001
  1.3418289e+000 -3.2920916e+000  9.7029518e-004
  1.6767429e+000 -1.0986720e+000 -4.7615631e-001
 -2.1499744e+000 -2.8298704e-001  8.7445030e-001
 -4.4450691e-001 -2.4751768e+000  1.6636849e+000
 -3.2877633e-001 -9.2344568e-001  4.3550964e-001
 -2.4279024e-001 -7.9159269e-001  1.7114748e-001
  1.9228701e+000 -1.6921853e+000  3.7198999e-001
 -1.1152849e+000 -2.1995550e+000  1.9067982e+000
 -4.4059043e-001 -2.4534495e+000  1.8437507e+000
 -1.2596749e-002 -2.8931132e+000  1.4930921e+000
  1.4175175e+000 -3.2761233e+000  8.5641455e-001
  1.3096990e-001 -2.8640210e+000  9.9301398e-001
  4.2792520e-002 -3.3813780e-001  1.0729370e-001
 -4.3698851e-001 -2.2013794e+000  1.8356796e+000
 -2.5372335e-001  3.7088071e-001  9.6358850e-001
 -2.6350839e-001  1.1085403e-002  1.6932500e+000
  1.4145239e-001 -6.5585916e-004  2.0023599e+000
 -1.1396809e+000 -1.3602071e+000  2.9946302e+000
 -9.6299550e-001 -1.8637318e+000  2.2623666e+000
 -1.1569126e+000 -1.7507935e+000  5.9450565e-001
 -3.7746286e-001 -2.9290368e+000 -6.2366686e-001
  1.4291201e+000 -3.6996223e+000 -1.4606277e+000
  7.2042136e-001 -2.3471703e+000 -1.5016875e+000
  7.7925447e-001 -1.8222082e+000 -4.9083567e-001
 -5.8144468e-001 -3.8719440e-001  3.9868316e-001
 -2.0279584e+000 -4.5861211e-001  1.4881318e+000
  4.9829036e-002 -8.1816992e-001  1.1718028e+000
 -1.6709087e-001 -1.0453921e+000  1.3061748e+000
 -9.8221849e-001 -1.2359966e-001  1.1684833e+000
  6.8841986e-001 -1.5216849e+000  1.6099797e+000
 -8.3629739e-001 -1.4367074e+000  1.9235945e+000
  7.0287133e-001 -2.5069438e+000  1.9031093e+000
  2.4566518e-001 -1.4193912e+000  1.4992851e+000
 -6.7373755e-001 -1.1101842e-001  1.3577564e+000
 -7.1903794e-001 -2.3253195e+000  2.7163323e+000
 -9.1829545e-001 -1.9805094e+000  2.1544621e+000
  8.9248045e-001 -1.1705489e+000  1.4143765e-001
 -6.1503659e-002 -2.8243452e+000 -9.2468095e-003
 -7.1398752e-001 -3.7245322e+000 -2.6273826e-001
 -8.8243422e-001 -1.5752326e+000 -1.5343541e+000
 -5.2950331e-002 -1.7119990e+000 -1.2319441e+000
  3.7535302e-001 -3.6142221e+000  3.0458990e-001
 -6.5188054e-002 -2.3538986e+000  2.1571459e-001
  9.1743411e-002 -1.5246855e+000 -1.9221774e-002
 -4.8297033e-001 -1.8364828e+000  4.5753343e-001
  1.5254743e+000 -2.4080433e+000  3.3143092e-001
 -2.5084245e-002 -3.1236594e+000  1.2489318e+000
  1.4264878e+000 -2.9189564e+000  7.5303796e-001
 -2.9714940e-001 -3.2390114e+000  1.2396364e+000
 -1.1137101e+000 -1.7268625e+000  4.0507166e-001
  3.5468461e-001 -2.4916949e+000  4.3732433e-001
 -5.7453967e-001 -9.9192240e-002  1.4757389e-002
  4.6842618e-001  2.4283014e-002  6.0593939e-001
 -4.6910308e-001  9.9650763e-002  1.4815543e+000
  8.5404828e-001 -4.8614910e-001  1.4091039e+000
  6.8135385e-001  2.3745268e-001  6.1255912e-001
  4.0152003e-001 -3.4251589e-001  6.5472351e-001
 -1.2226154e+000 -1.7376296e+000  1.8440403e+000
  1.9978204e+000 -2.7644391e-001  2.1366062e-001
 -1.0498037e+000 -3.5122141e-001  8.6736112e-001
  1.8288578e+000 -1.7837717e+000  4.1265119e-001
 -1.6932835e-001 -2.9271763e+000  1.2930374e+000
  5.0684133e-002 -1.7523118e+000  6.1487187e-001
  1.6688892e+000 -1.8780174e+000  4.6138001e-001
  2.2113239e+000 -1.4945777e+000  4.1033439e-001
  1.4679589e+000 -7.9206096e-001  4.9819511e-001
  8.0510108e-001 -4.6769107e-001  5.8814287e-001
  1.8672878e-001 -2.8266040e+000  1.8715554e+000
 -3.3935236e-001 -2.3930537e+000  1.5028234e+000
  2.5571415e-001 -2.3187604e-001 -8.3457183e-002
  7.6456554e-001 -2.3969535e+000  6.8824086e-001
 -3.4286709e-001 -1.6947065e+000  2.3614094e-001
 -1.1947877e+000 -7.3111622e-001 -5.9898782e-001
 -1.3119369e-002 -9.8023565e-001 -1.2757090e+000
  2.0817327e-001 -1.1996047e+000 -1.2581667e+000
  2.1209364e+000 -3.4622378e+000 -2.5838547e-002
  4.5604619e-001 -2.0847654e+000  5.2956984e-001
 -8.2898740e-001 -2.4146975e+000  1.6105619e+000
 -1.0341740e+000 -6.3945831e-001  5.9420068e-001
  1.6304763e+000 -2.3206606e+000  6.1905396e-002
 -1.5536514e+000 -1.9621449e+000 -3.4564757e-002
  2.7316661e-001 -3.2573448e+000 -2.2332902e-001
  2.4676820e-001 -2.5006992e+000 -4.7151336e-001
  2.1957387e-001 -8.2186870e-001 -9.9256323e-001
  2.0009179e+000 -1.7423963e+000 -7.3550044e-001
  1.7067886e+000 -2.3062346e+000 -2.4963121e-001
  2.6226237e+000 -6.3559617e-001 -1.3072886e+000
  1.0891072e+000 -8.1707623e-001 -6.1651322e-001
  8.0356954e-001 -6.5111193e-001 -3.8230936e-001
 -1.3906470e-001 -2.4714234e+000  1.1521760e+000
  1.4499511e+000 -9.4648918e-001  1.9623761e-001
 -2.5170138e+000 -1.3869830e-002  1.0558511e+000
 -6.8314378e-002 -1.3528909e-001  7.2414268e-001
  2.4538000e-001 -1.7772988e+000  1.9689267e+000
 -7.4428910e-001  2.2287200e-002  1.8699917e+000
 -1.1035417e-001 -2.0883013e-001  2.1623305e+000
 -5.2464943e-001 -3.4006816e-001  1.9632315e+000
 -1.4846224e+000 -8.4016197e-002  8.9750499e-001
 -5.2270884e-001 -2.6359664e+000  4.7372891e-001
  1.7619571e-001 -1.5616227e+000 -1.3806947e+000
 -3.0154734e-001 -1.0177477e+000 -1.5748868e+000
 -1.4864249e+000 -2.0047465e+000  3.0408321e-001
  8.4640323e-001 -1.5601789e+000  8.2504677e-001
  8.9221112e-001 -7.4670066e-001  1.2780238e+000
 -1.1416232e+000 -4.2020401e-001  1.5718779e+000
  1.2851200e+000 -9.2479920e-001  2.7053216e-001
 -2.2498757e-001 -3.0683808e+000  8.4237629e-001
  6.3679659e-001 -3.1932366e+000  2.7371687e-001
 -7.4935137e-001 -2.6404302e+000  7.2908346e-001
 -5.8754513e-001 -1.4827814e+000  7.9672028e-001
 -2.3610634e-001 -1.6466574e+000  1.3419081e+000
  7.9493696e-001 -1.4986227e+000  1.0817173e+000
  5.0003090e-002 -1.7760323e-001  3.6659531e-001
 -2.7128875e+000 -2.3641336e+000  2.1549585e+000
 -3.4176484e-001 -1.2526191e+000  1.1236470e+000
  3.5890692e-001 -1.9310639e-001  9.1907723e-001
  2.8880784e+000 -1.3935208e+000  1.4236817e+000
  7.6500510e-001 -9.5791126e-001  2.0658852e+000
  7.0040605e-001 -4.6432618e-001  1.8339376e+000
  1.7074276e-001 -1.3813520e+000  2.3153488e+000
 -1.6475611e-001  1.9614656e-001  1.2304491e+000
  2.7269197e-002 -3.8904046e-001  1.0065138e+000
  1.5903707e+000 -6.4883039e-001  2.5696321e-001
 -4.2138708e-001 -1.7051238e+000  1.1247488e+000
  9.3869259e-001 -2.9957650e+000  1.3601901e+000
 -2.3014775e-001 -1.9292071e+000  1.0446961e+000
  1.1708747e-001 -5.8694178e-001  2.1952174e-002
  9.7282830e-002 -6.4264759e-001 -2.7954086e-001
 -7.2733472e-001 -4.4783118e-001 -3.9049260e-001
 -1.3950902e+000 -1.0946988e+000  2.1789479e-001
  1.0852564e+000 -5.9806484e-001 -5.1995331e-001
 -8.4570414e-001 -1.4324204e+000  3.5607967e-001
 -6.3659281e-001 -3.3868860e+000  6.8118436e-001
 -1.3255264e+000 -2.3231950e+000 -6.5291962e-001
 -1.9214837e+000 -1.4634082e+000 -1.6640590e+000
  2.3845390e-001 -4.0132246e+000 -1.0278497e+000
  2.6539940e-001 -3.8680681e+000 -7.0957020e-001
 -2.5275315e-003 -1.9222766e+000 -1.0253898e+000
 -1.2047563e+000 -1.8754899e+000 -8.0989736e-002
 -3.4489371e-001 -4.3753704e-001 -5.7772410e-001
 -9.2560283e-002 -1.4426300e+000  3.2069754e-001
 -5.0373589e-002 -2.6019985e+000  1.3601663e+000
  5.1417648e-001 -1.4854257e+000  1.0554788e+000
 -5.1364334e-001 -2.4244239e+000  2.2415245e+000
  8.8272253e-001 -1.4354808e+000  1.5461408e+000
  9.2737591e-001 -1.0702637e-001  7.5507002e-001
 -7.3790994e-001 -8.3249163e-001  1.1906088e+000
  1.0146989e+000 -2.3481989e+000  8.2408351e-001
  4.0357185e-001 -1.4910060e+000 -1.8989218e-001
  8.4089496e-001 -1.1576742e+000 -9.7226693e-001
  1.8302419e+000 -3.8040878e+000 -2.7972972e-003
 -6.3964189e-001 -7.9393025e-001 -8.9958442e-001
 -2.2357752e+000 -1.8344978e+000  3.0935511e-001
  1.2124908e+000 -3.3218356e+000  5.6372099e-001
 -4.8564864e-002 -2.4415727e+000  9.0248383e-001
 -2.4957408e-001 -1.8221452e+000  8.0178521e-001
 -4.4752305e-001 -1.3203951e+000  3.3108196e-001
  2.4109267e-001 -7.1965446e-001 -6.0937413e-001
  1.1161462e+000 -6.5227361e-001 -1.0419039e+000
 -4.0133127e-001 -6.9296545e-001 -2.2881880e-001
  2.1810450e+000 -2.7503084e+000  8.9678425e-001
  2.2603460e-001 -1.3715417e+000  1.3006521e+000
  1.7341187e+000 -1.0062362e-002  1.4361120e-001
  1.1334969e+000 -1.5656320e+000  5.3838234e-001
  1.6078769e+000 -1.1169162e+000 -4.5341378e-001
  1.1983820e+000 -1.5455598e+000 -8.9252215e-002
  9.6804017e-001 -1.6886573e+000  8.3148767e-001
  6.1207785e-001 -3.4147314e-001  1.2428874e+000
  3.0692301e+000 -5.3958955e-001  1.2943978e+000
  1.8946150e+000  1.1937820e-002  1.2414540e+000
  5.6229423e-001 -9.7242883e-001  1.5480588e+000
  3.8272111e-001 -1.2029294e+000  1.0324914e+000
  7.3046570e-001 -3.1188766e+000  1.4915370e+000
  1.4746105e+000 -2.1964070e+000  7.1904405e-001
  3.3824018e-001 -5.6026436e-001  5.0229767e-001
  1.2500460e+000 -2.5138992e+000  1.7594131e+000
 -3.4070751e-002  2.0308387e-001  7.4799789e-001
  1.4563035e+000 -1.3852886e+000  6.9080456e-001
  3.0750034e-002 -2.2890586e+000  7.5259142e-001
 -5.2053078e-001 -3.3213013e+000  7.7775589e-001
  9.5997950e-001 -3.3403614e+000  1.3126918e-001
 -1.6458749e+000 -2.6150303e+000  6.9764997e-001
  1.6148101e+000 -3.0790701e+000  6.2761557e-001
  1.4406034e+000 -2.9673808e+000  1.3070088e+000
  1.0204111e+000 -2.4575545e+000  1.6564813e+000
  1.3875259e+000 -1.5119090e+000  1.2182821e+000
  1.2688604e+000 -6.1029147e-002  4.5919268e-001
 -1.0372689e-001 -5.7289871e-003  9.1832481e-001
  6.5135133e-002  1.1836418e-001  1.0899419e+000
  6.4919352e-001 -7.2006543e-001  1.4870566e+000
  9.4830983e-001  5.3921922e-002  6.0075352e-001
  7.3586229e-001 -9.3663099e-001  5.4096472e-001
  3.6064953e-001 -8.3779039e-001  3.0954943e-001
 -4.7178605e-001 -2.3492063e+000  1.7067426e+000
 -9.5195341e-002 -2.1016215e+000  2.0297172e+000
  8.1480822e-001 -1.9842508e+000  1.8651226e+000
  2.2438150e-001 -9.1138302e-001  1.0447370e+000
 -1.3438766e+000 -3.8652463e-001  5.3418356e-001
 -5.9009179e-001 -2.5012964e+000  8.9825911e-001
 -3.6741171e-001 -1.8218486e+000  2.1291796e-001
  4.2064114e-001 -2.6998004e+000  5.7594966e-001
  1.4359930e-001 -8.4182614e-001  1.1760015e-001
  3.4304164e-001 -1.1931713e-001  3.6459910e-001
  3.7234280e-001 -7.7379492e-001  1.3848296e+000
  6.2738014e-001 -1.6214548e+000  2.1537697e+000
  1.0468404e+000 -9.8538198e-002  1.1237782e+000
  2.2152782e-001 -1.5672605e-002  6.8173765e-001
  7.0294538e-002 -3.0714962e+000  1.3173408e+000
 -4.9812657e-001 -2.2186473e+000 -1.0323265e-001
 -6.0067140e-001 -2.2774007e+000 -6.8970921e-001
  7.3063855e-001 -2.5816305e+000 -6.4424246e-001
  2.5945324e-001 -3.3197913e+000  9.1573549e-001
 -1.2394898e+000 -2.5508865e+000  2.0766293e+000
  2.6735921e+000 -2.4095717e-001  3.3515127e-001
 -1.7978582e+000  3.5266142e-001  1.0535012e+000
  4.1252196e-001 -1.2551071e+000  6.9430254e-001
 -1.3119273e+000 -2.5277980e+000  1.4537861e+000
  8.8148202e-001 -6.8989988e-001  8.8286058e-002
 -3.0417529e-001 -1.6575438e+000  1.7409991e+000
 -2.3808386e-001 -2.5381658e-001  1.8243860e+000
 -1.2731411e+000  5.6962616e-001  1.9094039e+000
  6.1503940e-001 -1.6622113e+000  1.9369628e+000
  8.2134546e-001 -7.7541429e-001  2.4817282e-001
 -2.4484730e+000 -8.5780793e-001  2.5984326e-001
 -6.6334336e-002 -1.9686019e+000 -1.7185482e-002
  6.0354478e-001 -1.7601550e+000  1.3463747e-001
 -2.9591995e-002 -1.6154718e+000  8.2111535e-001
 -1.2793805e-001 -2.3896214e+000  1.5011493e+000
 -1.0469521e+000 -7.5615156e-001  7.4971069e-001
  3.4152796e-001 -1.4538310e-001 -7.9890534e-002
 -3.6276956e-001 -1.4137776e+000  9.5998476e-001
 -1.8830027e-003 -2.5348981e+000  1.7289641e+000
 -6.9274584e-001 -2.3473976e+000  1.7965606e+000
  7.6744287e-001 -3.0498348e+000  1.3925376e+000
 -1.8674480e+000 -9.0698830e-001  6.7085873e-001
 -3.2337206e-001 -8.2625170e-001  3.5578501e-001
  9.7031481e-001 -2.6228971e+000  1.3852860e+000
 -3.4983579e-001 -2.8263459e+000  1.9971012e+000
  1.4617997e+000 -5.1994532e-001 -1.6088402e-001
 -5.5337448e-001 -2.4251643e+000  7.3311516e-001
 -2.0886582e+000 -1.0573542e+000 -3.5450450e-002
 -4.2724309e-002 -3.3478092e+000  5.8396849e-001
 -1.6639169e+000 -3.6518686e-001 -3.9702591e-001
  3.2527606e-001 -3.0895109e+000  6.1523897e-001
 -1.0949250e+000 -2.4852554e+000  6.5560505e-001
  2.9960247e-001 -2.1798435e+000  7.1676030e-002
  6.8639531e-002 -2.1169469e+000  2.0731301e-001
 -8.2519928e-001 -6.5884783e-001 -6.8267210e-002
 -4.3491964e-001 -2.0048425e+000  7.9949189e-001
  5.4327782e-001 -1.1914921e+000  1.0020358e-001
 -5.4341633e-001 -1.8110492e+000  3.1680384e-001
 -2.5648957e-002 -2.9560620e+000 -1.8637410e-003
  3.8272613e-001 -2.8418298e+000 -9.4153008e-001
 -2.0928742e+000 -1.4138765e+000 -1.2065291e+000
 -1.7471222e+000 -2.0533436e+000 -3.2274729e-001
 -3.0406800e-001 -2.5917776e+000  6.5486297e-001
 -4.1268673e-001 -2.5013562e+000  1.4538399e+000
  1.1583852e+000 -2.8757349e+000  1.3189366e+000
  8.9715470e-001 -1.5964900e+000  3.2391715e-001
 -4.6751859e-001 -1.5193339e+000  4.6148603e-001
 -5.7587934e-001 -1.4833483e+000  8.7456809e-001
 -1.6726330e+000  3.1834628e-001  1.0273439e+000
  5.1433462e-003 -1.5213394e+000  2.2562667e+000
  4.8836530e-001 -5.0335481e-001  1.8135291e+000
  4.0635902e-001 -5.1500565e-001  1.5428668e+000
 -2.6004910e+000  6.0654780e-002  1.2965833e+000
  1.1739694e-001 -2.7145769e+000  9.7285937e-001
 -1.3667034e+000 -8.5787500e-001 -5.3529794e-001
  1.7784510e+000 -3.4133451e+000 -2.9318432e-001
 -1.5565063e+000 -1.9401318e+000  4.6524885e-001
 -6.2454823e-001 -1.3443879e+000  1.0104074e+000
 -1.3686580e+000 -1.2855657e+000  2.0182249e+000
 -1.8770370e-001 -2.7059262e+000  2.3938691e+000
 -3.4321953e-001 -2.1519374e-001  2.2987736e-001
 -2.0769456e+000 -1.0929863e+000  1.4396866e-001
 -1.0906641e+000 -1.3538499e+000 -5.8902616e-001
  4.3515337e-001 -3.2720624e+000  9.5324730e-004
  3.7186888e-001 -1.1992510e+000 -7.5368217e-001
 -1.3116293e+000 -2.2239366e+000  6.0090105e-001
  1.2467644e+000 -1.5094361e+000 -4.2362957e-001
  1.1721516e+000 -1.8648589e+000 -3.8235661e-001
 -3.9518534e-001 -1.1465725e+000 -4.0332125e-001
 -2.2213945e+000 -1.7479536e+000  7.3282024e-001
 -1.4119288e-002 -2.6731943e+000  1.2289179e+000
  1.4027363e-001 -1.7452392e+000  1.3681810e+000
 -8.7533470e-001 -1.4180909e+000  2.1468032e+000
 -8.4684589e-002  2.5573706e-001  1.6618867e+000
 -7.2440846e-001  7.9540164e-001  1.8149809e+000
 -3.6316625e-002 -1.7602242e+000  2.4732597e+000
 -2.4799987e-001 -2.4559854e+000  1.7242171e+000
 -7.0338008e-001 -1.2891184e+000  1.7189361e-001
 -2.6444277e-001 -4.6361672e-001 -6.1679048e-001
 -3.5941194e-001 -1.6634386e+000  5.5480467e-001
 -5.1849007e-001 -2.4930142e+000  1.5710083e+000
  8.6980950e-001 -3.0154217e+000  1.5982009e+000
 -3.3682411e-001 -3.4991534e-001  5.4337806e-001
  2.6186882e-001 -7.3638264e-001  1.0179465e+000
 -1.1408116e-001 -8.0002926e-002  1.5047684e+000
  8.8583797e-002 -1.0151981e+000  2.3725501e+000
  4.8353489e-001 -1.5692816e+000  2.2834379e+000
  1.1425400e+000 -1.7137191e+000  1.5243299e+000
 -3.8134497e-001  2.7939371e-002  6.4860783e-001
  9.3087511e-002 -2.2545249e+000  1.9319945e+000
  1.3783903e+000 -2.8022650e-001  8.9767525e-001
 -2.7468320e-001  2.9064547e-001  1.1399592e+000
 -1.0815328e+000 -2.5385365e+000  2.6423288e+000
  6.2633363e-001 -6.2419950e-001  8.8797373e-001
  3.1468754e-001 -2.8161395e+000  2.0090750e+000
 -4.8355757e-001 -3.5337160e-001  6.3412625e-001
 -1.2199959e+000 -6.3833212e-001  3.5746970e-001
  6.7367059e-001 -2.7596564e+000  1.8774896e-001
 -8.8661282e-001 -3.1116207e+000  3.7623180e-001
  4.7421686e-001 -5.9872441e-001 -1.1118896e+000
  3.1231273e-001 -2.1732277e+000  5.9424578e-001
 -4.3956396e-001 -2.1633697e+000  1.8285291e+000
 -1.2634001e+000 -7.7595154e-001  2.1199090e+000
  1.0239391e+000 -6.2436166e-001  1.6356695e+000
  1.8544524e+000 -2.4027150e+000  1.8979026e+000
 -3.0344608e-001 -9.0647122e-001  7.4254002e-001
 -1.8403750e+000 -1.5131835e+000  5.0985325e-001
  1.2435663e+000 -2.7008170e+000 -2.2073812e-001
 -8.5991931e-002 -1.3865418e+000 -3.1257017e-001
 -1.2621598e+000 -1.4663731e+000  9.7690580e-001
  4.1812388e-001 -7.9252029e-002  9.6503044e-001
  1.3947141e+000 -2.2915657e+000  2.8016471e+000
 -1.5663539e-001 -6.1242582e-001  2.4933019e+000
  9.8614256e-001 -6.2592036e-001  1.4586632e+000
 -2.2354808e+000 -1.6987551e+000  1.6674584e+000
  1.7814533e+000 -2.0393400e+000 -4.4769077e-001
 -2.7612481e-001 -2.6883298e+000 -1.9037750e-001
 -4.9605429e-001 -1.0915166e+000 -1.0082221e+000
 -7.6923945e-001 -1.9086461e+000  3.1230748e-002
  9.8148203e-001 -2.3816660e+000  6.7845647e-001
  5.4845749e-001 -1.5176126e+000  1.2222404e+000
 -1.3829511e+000 -1.4446777e+000  2.2171634e+000
 -7.9382550e-001 -1.3828255e+000  1.9389058e+000
 -1.1239388e+000 -1.5878411e+000  1.5571735e+000
  8.8979085e-002 -3.1200180e+000  1.1473189e+000
 -1.9563600e+000 -3.3669040e+000  8.3983223e-001
  1.0079244e+000 -3.9131678e+000 -5.1969502e-001
  3.7912285e-001 -1.9488536e+000 -1.6411024e+000
 -8.6705516e-001 -2.9324634e+000 -6.5318354e-002
 -2.2054784e-001 -2.0875150e+000  9.1640892e-001
  6.5079996e-001 -1.6994127e+000  2.3801152e+000
  1.5673611e+000  7.7947761e-001  2.0130445e+000
  8.8812027e-001 -6.4959242e-001  2.7199147e+000
 -7.4443824e-001 -1.0263918e+000  1.8116352e+000
  6.5159937e-003 -1.3872676e+000  3.5251366e-002
  4.4663963e-001 -1.0141202e+000 -1.0112708e+000
 -2.3051137e+000 -6.8536463e-001  2.5632129e-001
  7.6928118e-001 -2.5607956e+000  1.7991583e+000
  1.0174310e+000 -1.3674364e+000  2.0847382e+000
  1.6040814e-001  3.6461426e-001  1.3749081e+000
 -4.0478216e-001 -6.3528719e-001  1.3150438e+000
  6.4855754e-001 -1.3991116e-001  6.7264044e-002
  2.2989314e+000 -1.5103853e+000  2.3986689e-001
  2.2307251e-001 -8.7126808e-001  8.1069125e-001
  7.3435117e-001 -8.4084673e-001  9.5263865e-001
 -6.6060582e-001  2.0229989e-001  7.2976969e-001
 -1.7475296e-001 -2.3316428e+000  1.5520389e+000
 -7.2276571e-001 -5.6776603e-001  1.4302749e-001
  2.1535559e-001 -1.2471395e+000 -4.0559064e-001
 -2.5557286e+000 -3.1975344e+000  9.4519076e-001
 -2.3519479e-001 -1.5802958e+000 -6.1788508e-001
  3.0942351e-001 -1.8374333e+000 -2.5148527e-001
 -1.3052424e-001 -1.3612403e+000  1.4757302e-001
  8.1177675e-001 -1.6765198e+000  3.0238455e-001
  3.3909169e-001 -4.2852522e-001 -5.4927939e-001
 -6.7177891e-001 -3.0546469e+000  4.3631258e-001
 -1.1401663e-001 -2.7211193e+000 -4.3039969e-001
  4.3388411e-001 -1.3830010e+000 -1.1572978e+000
 -1.2067264e-001 -2.5609093e+000  4.5693656e-001
 -8.0252215e-001 -2.9267968e+000  1.8711335e+000
  4.7519483e-001 -1.2817223e-002  6.3637749e-001
  1.0881721e+000 -6.0974375e-001  9.2294832e-001
  1.2123769e+000 -1.5192817e-001  3.9562654e-001
 -2.2165628e-001 -5.8687782e-001  6.7258988e-001
 -1.2252169e-001 -2.8883187e+000  1.6582227e+000
  5.5925826e-001 -7.9405028e-001  4.1104850e-001
  1.1547577e-001 -2.1647445e+000  1.5640586e+000
 -8.7795462e-001 -5.6447534e-001  1.1721297e+000
 -1.0967152e-001 -1.1478971e+000  9.9433788e-001
 -5.3930673e-001 -2.0054620e+000  7.9481995e-001
  4.6421476e-001 -1.4580792e+000 -6.8775742e-001
 -4.2213564e-003 -2.0235755e+000 -8.1469923e-001
 -1.9901603e+000 -5.7986339e-001 -9.9322982e-001
 -3.7039992e-001 -2.2522544e+000  4.1657225e-002
  2.5226338e-001 -2.8520643e+000  1.1011979e+000
  1.6544527e+000 -1.8473291e+000  1.1274016e+000
  1.9461472e-002 -2.3210306e-001  1.3177102e+000
  7.2959353e-001 -2.4179511e-001  1.0162898e+000
 -1.4887600e-001 -2.4149566e+000  1.6171214e+000
 -1.7790006e+000 -2.1921913e+000  9.5921966e-001
 -2.2504336e+000 -7.6604740e-001 -1.7796382e-001
  4.7671911e-001 -2.3267355e+000  1.9033189e-001
  4.2962607e-001 -1.6727305e+000  6.9202318e-001
 -1.4197517e+000 -2.2774842e+000  2.4306041e+000
  1.5474992e+000 -1.2306449e+000  1.6205869e+000
  1.2795953e+000 -1.7326433e+000  2.0482940e+000
  5.9219520e-001 -8.6287647e-002  1.0145709e+000
  1.5768915e+000 -1.6297657e+000  1.0085037e+000
 -1.7554657e-001 -1.8237658e+000  1.0118324e+000
  1.0704775e+000 -6.1863771e-001 -4.6792848e-001
 -1.5316029e+000 -1.0825888e+000  2.2783632e-001
  9.9947076e-001 -7.0667595e-001 -6.4499118e-001
  6.7214920e-001 -3.2770789e+000  1.1015253e+000
  1.3184502e+000 -2.9430134e+000  1.0610328e+000
  3.1316017e-001 -4.3529156e-001  1.4041530e-001
  1.2610351e+000 -1.3139021e+000  2.5318495e-001
  1.1428535e+000 -4.7401786e-001 -3.8989144e-001
 -5.0265789e-001 -2.3414734e+000  8.5757544e-001
 -3.1006995e-001 -2.7279444e+000  7.7530399e-001
  4.5822830e-001 -2.1952179e+000 -1.5421748e-001
 -1.2478954e+000 -1.9294007e+000 -3.9235911e-001
 -1.6948169e+000 -1.3901695e+000 -8.6054117e-001
 -1.0749006e+000 -3.0090245e+000  1.4554871e-001
  1.1145197e+000 -3.4091062e+000  5.0364565e-001
  1.4633576e+000 -2.9857065e+000  7.6730904e-001
 -3.6845884e-001 -7.9913516e-001  1.3279909e-001
 -6.9188972e-001 -9.1345286e-001  8.8525459e-002
 -3.4617949e-001 -5.3149954e-001  1.2975671e-001
  4.8914172e-001 -5.3063905e-001  1.0703829e+000
  2.3881826e-001 -1.1855754e+000  2.8439574e+000
  9.5367767e-001  7.2070844e-001  2.1336936e+000
 -6.2828014e-001 -1.2031747e+000  2.8741141e+000
 -1.0546517e+000 -9.0653078e-001  1.4486991e+000
  6.2698681e-002 -3.1421156e+000  1.2911139e+000
 -2.8123110e-001 -2.6369516e+000  9.3186803e-001
 -1.8352993e-001 -4.3330724e-001  7.5291615e-002
  5.9020786e-001 -3.1692534e+000  1.4514608e+000
 -3.6804120e-001 -2.2974035e+000  7.4586461e-001
  1.0981436e+000 -9.9356966e-001 -1.1505755e+000
  4.5691392e-001 -1.7947941e+000 -9.4004024e-001
  2.6110632e-001 -2.6345111e+000 -6.3666396e-002
  1.4929338e+000 -1.9308855e+000  1.5647501e-001
 -2.7361096e-001 -1.4668404e+000  1.3484739e+000
 -1.2556499e+000 -1.9985358e+000  2.3713032e+000
  1.4986878e+000 -2.4973753e+000  1.7096358e+000
 -5.8797030e-001 -1.7427864e-001  4.9676959e-001
 -3.8950896e-002 -5.6759364e-001  1.3441718e-002
 -1.9713892e-001 -2.7923673e+000  8.2499472e-001
  8.4250764e-001 -1.9840520e+000 -3.8910334e-001
 -6.7047139e-001 -1.3173767e+000 -9.4493333e-001
 -2.5325489e+000 -1.1183001e+000 -9.8332542e-001
 -1.3750368e+000 -3.6980256e+000  1.2127432e-001
 -1.8595858e+000 -1.5488700e+000 -3.9596544e-001
 -1.4099657e+000 -3.1016965e+000  9.4116165e-001
  5.3196676e-001 -3.3036988e+000  9.6528519e-001
  9.7469605e-001 -1.6753177e+000  2.0414315e-001
  8.5385736e-002 -1.9088447e+000  6.9548577e-001
 -9.0392662e-001 -2.7728250e+000  1.4534340e+000
 -2.6592347e-001 -1.6109844e+000  5.7590652e-001
  3.3390400e-001 -1.1774177e+000  2.0948420e-001
  4.8826447e-001 -9.8125902e-001  4.4127123e-001
  5.1107349e-001 -8.7492750e-001  9.3421296e-001
  1.0575724e+000  8.5707492e-002  4.3693068e-001
 -1.6399775e+000 -1.2418595e+000  1.3079361e+000
 -9.0621657e-001 -3.0344009e+000  1.0194887e+000
 -1.2756866e+000 -1.9170506e+000 -2.0560851e-001
 -4.0527201e-001 -1.0488452e+000 -7.4754208e-001
  2.3770567e-001 -3.1805638e+000  1.1950913e+000
 -5.3834738e-001 -1.2038703e-001  1.0121754e+000
 -9.4235250e-001  1.7673369e-001  1.9509371e+000
  1.0667546e+000 -1.4222354e+000  2.7209621e+000
  9.9167275e-001 -4.6895712e-001  2.0997173e+000
 -7.8149850e-001 -2.7296811e-001  1.7895749e+000
 -5.0145734e-001  1.0135563e-001  5.0248328e-001
 -1.1679670e-001 -1.3425960e+000  2.8224328e-001
  5.8583765e-001 -3.3595627e+000  7.1215967e-001
  1.1636601e-001 -3.2667730e+000  7.3039070e-001
 -1.0719564e+000 -1.2466211e+000  4.8641485e-002
 -7.6235870e-001 -1.4235556e+000  8.1133035e-002
  1.0648941e+000 -1.8370700e+000 -1.9108157e-001
  3.0506493e-003 -3.3204440e+000  1.0150496e+000
 -2.8711018e-001 -3.2208197e+000  1.2475303e+000
  6.5828858e-001 -9.2674839e-001 -6.6068317e-002
 -3.2661137e-001 -1.0837942e+000  4.2293217e-001
 -1.6544950e+000 -7.8717946e-001  8.2740583e-001
  8.1712706e-001 -1.7486687e+000  9.6459186e-001
 -4.4024793e-002 -2.2432075e+000  1.6959734e+000
  8.3653540e-001 -2.3645998e+000  1.3069871e+000
 -1.6815392e+000 -1.6119768e+000  7.4445833e-001
 -5.7836209e-001 -1.4702914e+000 -8.9073609e-001
 -1.3794709e+000 -1.6735701e+000 -1.5696863e+000
 -1.4720950e+000 -3.7920465e+000 -5.7311203e-001
  1.5632967e-001 -1.2580366e+000 -1.5666946e+000
  1.1297635e+000 -1.7985278e+000 -1.6499340e-001
 -2.0154528e-002 -1.0215318e+000  1.0214554e+000
  2.1490276e-001 -2.7191873e-001  1.2704662e+000
 -8.1501477e-001  4.6283858e-001  1.2278552e+000
  1.5838811e-001 -2.8856559e-001  1.0025382e+000
  1.7121835e-001 -1.7987138e+000  1.3757947e+000
 -6.1766216e-001 -1.0256337e+000  9.8721068e-001
  2.7254879e-001 -4.5488572e-001  6.3968800e-001
 -4.2320536e-001 -2.1628733e+000  2.2806253e+000
  6.1495869e-001 -1.2634051e-001  1.5191504e+000
 -4.5718430e-003  6.2528593e-001  1.7455191e+000
  7.3392841e-001 -1.0307916e+000  2.5561923e+000
  3.3823782e-001 -1.3808472e+000  2.5049296e+000
 -2.2428471e-001  1.0017883e-001  9.4996241e-001
 -1.0402131e+000 -3.1327546e+000  1.5663068e+000
 -7.5722171e-001 -2.0464506e+000 -4.3341296e-001
 -2.3645179e+000 -2.7481848e+000 -4.4896519e-001
 -1.6714455e+000 -1.8959380e+000 -1.1324622e+000
  1.0682739e+000 -3.3596044e+000 -3.0421888e-001
 -1.0079254e+000 -2.8283738e+000  1.3703866e+000
  9.4561031e-001 -2.6131359e+000  2.0880858e+000
  1.3142993e+000 -2.4881404e+000  2.5763116e+000
 -3.1414234e-001 -2.5219398e+000  2.6933971e+000
 -7.7626255e-001 -2.7335164e+000  1.9473057e+000
 -7.2624942e-001 -2.9124948e+000  1.1175066e+000
 -7.7410430e-001 -1.3930943e+000  6.1568084e-002
  8.2913655e-001 -1.1228209e+000  9.2139338e-002
  7.9422863e-001 -5.5068914e-003  7.4658760e-001
  1.5412634e+000 -2.0052790e+000  2.8371727e+000
  8.1382629e-001  7.3535446e-001  2.1367018e+000
 -4.3420225e-002 -1.0070243e+000  2.9914445e+000
  9.4103266e-001 -3.8939250e-001  1.3633042e+000
  5.9535147e-001 -1.1031009e+000  4.8157502e-001
  2.2002675e-001 -2.0051963e+000 -1.6336227e-001
  1.8021369e-001 -3.2106533e+000 -2.0482585e-001
 -1.0479173e+000 -3.1445172e+000  2.1082381e-002
 -9.5458513e-001 -2.9107510e+000  1.6098238e-001
 -1.2413951e+000 -1.4220930e+000 -1.5639287e-001
  9.4475081e-001 -2.8177142e+000  4.7494961e-001
 -1.6596268e+000 -1.2196012e-001  3.6858665e-001
 -1.0921062e-001 -1.9017425e+000  1.4305011e+000
 -8.5411601e-002 -1.8219897e+000  1.4630087e+000
  7.9987304e-001 -1.2092741e+000  4.6898341e-001
  4.9485422e-001 -1.2258009e+000  1.1184869e-001
  1.1715181e-001 -5.0375402e-001 -1.4655318e-001
 -1.2380410e-001 -1.0915354e+000  7.0321543e-001
  7.3265347e-001 -2.1657744e+000  1.4680116e+000
  1.0217230e+000 -1.9257979e+000  1.2859856e+000
 -5.3705285e-001 -1.6632239e+000  1.2872931e+000
 -4.2634919e-001 -2.2384394e+000  1.2340671e+000
  1.1132562e+000 -3.4236627e-001 -4.3262364e-001
  6.7451587e-001 -1.2079231e+000  5.0983227e-002
  5.0534081e-002 -2.9362242e-001 -2.8127250e-001
  1.1328933e+000 -5.9314276e-001 -4.4382442e-001
 -4.2922728e-002 -1.7066682e+000  3.2071361e-001
 -6.0130800e-001 -2.4109070e+000  5.7909760e-001
 -7.0196650e-002 -2.3482633e+000  2.7727273e-001
  5.5083036e-001 -1.3931996e+000 -6.6281778e-002
  6.9825420e-001 -1.9575348e+000  9.9427823e-001
 -1.0338567e+000 -8.8765030e-002  1.3305339e+000
 -3.3758153e-001 -1.3990200e+000  2.2755569e+000
  4.1828501e-001 -1.4554536e-002  1.1790844e+000
 -6.1556916e-001 -7.9587772e-001  1.4524794e+000
 -2.2879247e-001 -1.3921197e+000  1.3890337e+000
 -5.6282252e-003 -2.4662788e+000  1.9738645e+000
  7.0085763e-002 -1.3619534e+000  1.6049294e+000
 -4.2154470e-001 -1.0266048e+000  1.6543353e+000
  2.6150228e-001 -1.1063657e+000  1.2700203e+000
 -6.2369143e-001 -1.1638108e+000  1.0860975e+000
 -8.2926881e-001 -6.5609386e-002  1.2874307e-001
 -2.1938104e+000 -2.7764346e-001  3.8059023e-001
  1.1432281e+000 -7.2385796e-001 -3.4982482e-001
  1.2160738e+000 -9.2341365e-001 -9.2866728e-002
 -1.6833800e+000 -4.5078494e-001  8.7978396e-001
  5.1144218e-001 -2.8460159e+000  2.1249348e+000
 -4.3427155e-001 -1.5254302e+000  2.1274034e+000
 -1.7592672e-001 -2.2545775e+000  2.5534236e+000
 -2.2990289e+000 -7.1383078e-001  2.0858138e+000
 -6.1043369e-001 -1.8357748e+000  1.8773851e+000
  3.2014048e-001 -3.6391730e-001  6.2075342e-001
 -6.7535307e-002 -1.3072885e+000  1.2442995e+000
  1.3723526e-001 -1.5105420e+000  1.4565822e+000
  3.2688980e-001 -3.3749314e-001  9.2787500e-001
 -1.7936740e-001 -9.6683079e-002  8.5578230e-001
  5.3534061e-001 -2.6053999e+000  1.5055521e+000
 -2.5491713e-002 -2.2553449e+000  6.7738540e-001
 -1.3805904e+000 -2.8998605e+000  7.2312941e-001
  9.1811978e-002 -1.8290990e+000 -4.0591544e-001
  5.8208054e-002 -2.9248607e+000  7.0422075e-001
 -1.3394813e+000  1.5117186e-001  4.1740396e-001
  2.5753636e+000 -5.8866749e-001  6.6237934e-001
 -1.6370171e+000 -1.1731794e+000  2.3751738e+000
  4.0821033e-001 -2.2567548e+000  1.5622922e+000
 -4.6047581e-001 -1.5617208e+000 -9.5294013e-002
 -4.2252203e-001 -2.5512082e+000 -9.0588576e-001
 -1.6967897e+000 -3.6947047e+000 -3.4862073e-001
 -8.1941335e-001 -2.4103081e+000 -6.5556680e-001
 -8.9641844e-001 -2.6899824e+000  7.9481529e-001
 -7.6576708e-002 -1.2381428e+000  1.1667763e+000
 -4.4905533e-001 -1.6962007e-001  1.6286581e+000
 -1.0992533e+000 -3.1773024e-001  1.9717495e+000
  3.5436195e-001 -5.4573375e-001  8.6970092e-001
  1.8732457e+000 -1.7666593e+000 -1.9103997e-001
 -1.5349445e+000 -2.2443372e+000 -1.7051481e-002
 -2.1835795e+000 -1.3722674e+000 -4.8671608e-001
 -1.2489951e+000 -1.8364920e+000  2.2555468e-001
  3.2143058e-002 -1.5651306e+000  9.4034548e-001
  1.5313824e-001 -3.7325583e-001  1.3853324e+000
  9.6445835e-001 -1.0069369e+000  2.0302210e+000
  1.1365254e+000 -1.0147524e+000  1.7061291e+000
  9.3380886e-001 -9.4094042e-001  7.7703306e-001
  3.9882868e-001 -1.1514182e+000 -8.8850933e-003
  1.7394383e-001 -3.2388700e+000  7.6687917e-001
 -7.2165242e-001 -1.5026157e+000  6.2949011e-001
  3.6933424e-001 -4.6292145e-001  7.7967847e-001
  1.3736413e+000 -1.2707850e+000  1.5771516e+000
  1.8889138e-001 -1.0184353e+000  1.6864670e+000
 -1.2574828e+000  1.7173392e-002  1.1106426e+000
  1.1405590e-001 -5.6020460e-002  6.8183757e-001
 -1.2834733e-001 -1.3827850e+000  1.9848161e+000
  1.1832252e+000 -9.1680338e-001  2.1261981e+000
  7.7898285e-001 -1.7342403e+000  3.0154257e+000
  1.2684453e+000 -2.8705168e-001  1.7801896e+000
 -9.0020128e-001 -1.0905364e+000  2.1611401e+000
  1.3844111e+000 -1.2897148e-001  5.1943566e-001
 -5.2649436e-001 -2.3330827e+000  2.0816768e+000
 -8.6519682e-002  1.7139467e-001  6.3959272e-001
  1.0093192e+000 -1.0391605e+000  8.5800070e-001
  3.9010103e-001 -7.1037040e-001  3.8108087e-001
  8.6293859e-001 -2.2015532e+000  3.8453349e-001
  1.3698516e+000 -1.9640672e+000 -2.9331372e-001
  1.3938839e+000 -1.2952314e+000 -4.5593235e-001
 -1.1164699e+000 -1.4558901e+000  1.0072280e+000
  4.5209549e-002 -2.1009383e+000  1.5872413e+000
  7.7561040e-001  1.5731223e-002  5.6826393e-002
 -1.2503359e+000 -2.4541666e+000  8.2197006e-001
 -1.2054698e+000 -3.5951059e+000 -2.2043538e-001
  6.7891330e-001 -3.7231341e+000 -2.0556985e+000
 -4.1088012e-001 -3.3279644e+000 -2.3643198e+000
 -1.1679726e+000 -3.1963942e+000 -1.4057682e+000
  7.3607727e-001 -3.1454534e+000 -3.6087013e-001
  2.6036604e-001 -2.5643406e+000  9.5906542e-001
  9.9937128e-001 -8.5545215e-001  4.8118160e-001
 -1.1100892e+000 -2.8377378e-001  4.1666283e-001
 -9.1038033e-003 -7.4933761e-001 -4.3140606e-001
 -1.2247413e+000 -2.1293734e+000  1.3219251e-001
 -1.9951987e+000 -1.1866189e+000 -7.7315303e-002
  5.2056610e-001 -9.1892159e-001 -5.4711291e-001
 -7.5541743e-001 -8.2056175e-001 -1.4437254e-001
 -2.3569819e+000 -9.3759204e-001 -2.4980756e-002
  3.3086701e-001 -2.4217620e+000 -4.7762294e-001
  1.9947424e-001 -2.9359892e+000 -1.6059034e-001
 -6.6437620e-001 -2.9515839e+000  8.3456228e-001
 -1.3427649e-001 -1.3049872e+000  8.9694060e-001
  1.7067084e+000 -1.6696046e+000  1.3841227e+000
  1.7175531e-001 -2.3779869e+000  2.3041773e+000
  5.2952707e-001 -9.5232131e-001  8.9479611e-001
 -2.9053965e-001 -1.4074967e+000  5.6944812e-001
 -2.1446081e+000 -2.7013972e+000  1.2532127e+000
  5.5366944e-001 -2.8553877e+000  5.8085523e-001
 -1.8329243e+000 -1.3110084e+000  7.7828466e-001
  1.0627662e+000 -8.2804102e-001  1.9075996e-001
 -3.5209865e-001 -1.6665079e+000  1.4701958e+000
  1.6726902e-001 -1.3696909e+000  1.4972279e+000
  2.9821532e+000 -2.2454860e-002  1.2123068e-001
  9.3727536e-001 -2.4601220e+000  1.8966490e+000
  1.5161746e-001 -1.7849519e-001  7.4833359e-001
  8.6542256e-002 -4.4396974e-001  9.2341915e-001
  1.4113535e+000 -1.5746035e+000  1.2343185e+000
 -3.9445556e-001 -2.0465057e+000  1.8074339e+000
 -1.8130734e-001 -2.9906552e+000  1.7880212e+000
 -1.2329053e+000 -1.7760218e+000  1.0856266e+000
 -1.7774157e-001 -1.8474044e+000  1.0467144e+000
  1.0148452e+000 -1.7184860e+000  1.4266203e+000
  4.2681349e-001 -1.9817952e+000  2.6822127e+000
 -1.1732569e-001 -1.8281186e+000  3.4030012e+000
  6.1076098e-001 -2.0028782e+000  3.3601701e+000
  1.6498756e+000 -5.9029588e-001  1.7807203e+000
  1.8174521e+000 -2.4718536e+000  1.8038195e+000
  1.0566650e+000 -1.4494423e+000  3.8885952e-001
 -3.7430584e-001 -1.4678310e+000 -1.3618972e-001
 -2.0277360e+000 -2.4145326e+000  3.0641061e-001
  1.3683072e+000 -2.5596065e+000 -5.3041461e-001
  1.0978570e+000 -1.5110535e+000 -5.0997278e-001
 -1.9347593e+000 -9.9994730e-001  7.6545727e-001
 -6.0356459e-001 -2.8371194e+000  1.9148718e+000
  9.8779239e-001 -2.1254370e+000  1.2097619e+000
  2.2521841e-001 -9.5434442e-001  5.9674819e-001
 -2.8760769e+000 -1.3409372e+000  1.5221199e+000
  8.8910102e-001 -1.0282262e+000  5.0983886e-001
 -1.7894719e-001 -1.3838993e+000  1.4293249e+000
  1.8251558e-001 -8.6744730e-001  1.2728621e+000
 -1.7130707e-001 -1.2223311e+000  1.1530224e+000
  1.0108488e+000 -2.7795275e+000  6.1839643e-001
  4.7069629e-001 -2.3838255e+000 -6.1603825e-001
  1.0626183e+000 -2.1383932e+000 -1.4878006e+000
 -7.1568030e-001 -1.8923909e+000 -6.9431757e-001
  6.8176571e-001 -5.6708745e-001 -6.2209719e-001
 -4.7354766e-001 -2.3392315e+000  1.7727161e+000
  2.3624962e+000 -1.4716362e+000  9.3383681e-001
 -2.5739526e-001 -1.4900672e+000  1.3315767e+000
  1.5473307e+000 -2.5881336e+000  8.2111017e-001
  1.0023599e+000 -3.2006817e+000  8.9387451e-001
 -1.5063294e+000 -2.0028843e+000  7.9135407e-001
  2.0322240e-001 -8.3440179e-001 -4.0668557e-001
 -3.5886180e-001 -5.0038143e-001 -6.3493058e-001
 -2.3097641e+000 -1.3800200e+000  2.9174042e-002
 -2.6267328e-001 -2.6077371e+000 -2.5796617e-001
  8.8847771e-001 -2.8547180e+000 -5.6270901e-001
 -1.1543193e+000 -7.6690109e-001 -6.5488075e-001
 -9.9858122e-001 -1.1010985e+000  5.2354663e-001
 -5.2354431e-001 -2.3871981e+000  2.2059845e+000
  8.4267259e-002 -1.3910130e+000  2.0144782e+000
  1.0492185e+000 -8.7608250e-001  1.0659848e+000
 -1.2860128e+000 -1.2557725e+000  9.5347712e-001
  1.6960374e+000 -3.1945490e+000  2.7084919e-001
  6.2237479e-001 -2.5785394e+000 -2.9898512e-001
  1.5007620e+000 -2.3266527e+000 -9.6163413e-001
 -1.3734470e+000 -3.0292593e+000  8.9971828e-002
  1.3518708e+000 -1.7212494e+000 -1.2165869e+000
  2.9915405e-001 -3.5413036e+000  5.0929166e-001
  8.6351888e-001 -1.2040807e+000 -4.0062690e-001
 -4.8281823e-001 -5.1917605e-001 -2.5878537e-001
  7.6666891e-001 -8.5654891e-001 -7.9539991e-001
 -7.3740068e-001 -3.0263308e+000  2.4354749e-001
 -4.2757247e-001 -1.9828225e+000 -5.6045068e-001
  4.4199252e-001 -2.5797203e+000 -4.0140036e-002
  5.3528994e-001 -1.6975206e+000  1.4552378e-001
 -8.6162340e-001 -2.1375284e+000  1.1369068e+000
  7.1792383e-001 -2.3297163e+000  6.7703416e-001
 -1.0548155e+000 -1.2415406e+000  3.4026539e-001
 -5.8866071e-001 -1.2911709e+000  3.7586829e-001
 -2.3047650e+000 -2.0539779e+000  1.8726055e+000
  1.4985055e+000 -2.5700362e+000  1.8034827e+000
 -1.8902392e+000  4.4535152e-001  1.4740072e+000
 -5.0728852e-001 -1.9503541e+000  2.1762068e+000
 -8.0681805e-002 -1.9119944e+000  1.4058578e+000
 -1.5013977e+000 -2.6470162e+000  1.4668576e+000
  1.9796827e-001 -4.5323791e-001 -5.6249919e-001
  7.1412081e-001 -3.0618648e+000  9.7893640e-001
 -1.3845447e+000 -1.9338018e+000  1.8770217e+000
 -6.2414014e-001 -2.4751883e-003  1.7435292e+000
 -6.1688970e-001  3.3213483e-002  2.3983736e+000
  6.7383909e-001 -2.1067043e+000  3.0685385e+000
  1.9878469e-001 -3.0333694e-001  1.5215729e+000
  1.1891022e+000 -1.6623656e+000  1.2107064e+000
 -2.2697903e-001 -1.6945478e+000  1.1532235e+000
 -1.1583423e+000 -1.4842564e+000  1.1028404e+000
  7.8430455e-001 -1.2796909e+000  4.0447149e-001
  4.5060219e-001 -1.6654350e+000  8.4872716e-001
  1.9228605e+000 -2.9727408e+000  1.6171120e+000
  4.8057967e-003 -1.3766778e+000  2.0450189e+000
  1.2329564e-001  6.1993112e-001  1.6345247e+000
  8.7377201e-001 -1.1459254e+000  2.5813019e+000
  7.8214794e-001  4.7940704e-001  1.2792831e+000
 -4.2424273e-001 -1.8499404e+000  1.9836118e+000
 -2.7108504e-001 -2.6342116e+000  1.5062422e+000
 -1.9983811e-001 -2.7323970e+000  9.9947510e-001
 -2.4519078e-001 -1.6171344e+000  2.3463537e-001
 -1.4801925e+000 -1.6816248e+000  7.3885472e-001
  5.3859516e-001 -1.1500967e+000  2.2236315e-001
  8.8212898e-001 -2.1130753e+000  9.2090681e-001
 -1.7158908e-001 -1.2791219e+000  6.4450679e-001
 -7.9486043e-001 -9.0523305e-001 -6.7599971e-002
 -3.3102467e+000 -4.7395994e-001 -5.7352412e-001
  5.6638685e-001 -2.5511675e+000 -1.1675089e+000
  3.3121246e-001 -3.7934724e+000 -2.3414626e-001
 -3.7185858e-001 -9.3177404e-001 -6.0807162e-001
  1.8045099e-001 -2.9188050e+000  1.4437431e+000
  7.7220465e-001 -1.1665492e+000  9.8230162e-001
  5.5112397e-002 -1.8784554e+000  1.3192563e+000
 -2.1509842e+000 -2.7696921e+000  1.3589889e+000
  5.6780282e-001 -2.0332252e+000 -1.0016966e+000
 -1.7472888e+000 -1.3160969e+000 -1.1903029e+000
 -1.6168284e+000 -2.2176902e+000  8.1519514e-002
  6.4504083e-001 -1.6740698e+000  8.0977383e-001
  2.1990007e-001  1.1732023e-001  1.2745033e+000
 -7.9958434e-001 -1.7427724e+000  2.5030652e+000
  5.1128911e-002 -2.4954571e+000  1.2028625e+000
 -9.7809283e-001 -1.3432591e+000 -1.0228237e+000
 -2.7358739e+000 -1.0863471e+000 -1.7360551e+000
 -1.3282523e+000 -2.1165123e+000 -1.2504141e+000
  2.1338252e-001 -9.4535500e-001 -1.0645980e+000
  1.8967664e+000 -1.9235045e+000  1.5486519e-001
 -4.7933246e-001 -2.1024025e+000  1.2667207e+000
  1.8891380e+000 -3.0124374e+000  6.3632381e-001
  1.3709499e+000 -2.6767470e+000 -1.5048117e-001
 -1.1625299e+000 -1.4375859e+000 -5.2184129e-001
 -1.7014237e+000 -1.6925337e+000  1.6673352e-002
  1.4574605e+000 -1.0878517e+000 -4.6163098e-001
  9.7230757e-002 -1.8094504e+000  9.3005388e-001
  2.2906359e+000 -8.7894936e-001 -1.0685585e-001
 -6.2998984e-001 -9.2397519e-001  2.7581791e-001
 -1.4640839e+000 -3.2728587e+000  1.2584699e+000
 -9.1547763e-001 -2.7788709e+000  7.0537892e-001
 -1.4045486e+000 -1.5126967e-001 -2.3347703e-001
 -1.4838292e+000 -7.5210896e-001  7.9369371e-001
  5.3612749e-001  1.5395095e-001  6.1526417e-001
  1.9157892e-001 -9.8745626e-002  1.6579785e+000
 -1.3545113e+000  8.5458059e-001  1.9793276e+000
  1.0629804e+000  3.8006819e-001  1.3528663e+000
 -1.2782915e-001 -1.4044384e+000  2.0514081e+000
  1.9338367e+000 -2.6833725e+000  1.6971061e+000
  9.7356816e-001  7.9109654e-002  3.4709600e-001
 -1.0199491e+000 -1.7065734e+000  1.8218915e+000
  9.2684008e-001 -7.5934000e-002  1.3631074e-001
  1.4220797e+000 -2.4307498e+000  6.7926182e-001
  2.3414339e-001 -3.0982364e+000  7.5370917e-001
 -7.4492489e-001 -9.1477836e-001 -3.0941108e-001
  1.3596855e-001 -2.5314687e+000  9.0620647e-001
  9.1432941e-001 -9.4741433e-001  9.9504882e-001
  5.5513353e-001 -7.1807596e-001  2.0511045e+000
  1.9714388e+000 -2.3273493e-002  1.6444173e+000
  5.6318355e-001 -2.2045455e+000  2.6220990e+000
 -1.9360498e+000 -3.9419838e-001  1.1294298e+000
 -4.0273596e-001 -2.6540538e+000  6.3487684e-001
 -9.7156398e-001 -2.7784974e+000 -2.2576244e-002
 -5.6734664e-001 -3.4186865e+000 -6.4270635e-002
  1.6337176e+000 -3.6509999e+000 -2.3738193e-001
 -5.5550636e-001 -1.8563616e+000  1.0868518e-001
 -9.4363030e-001 -1.1930943e+000  6.1244973e-001
  9.1235722e-001 -3.0205654e-001  3.5408302e-002
  8.7068712e-001 -1.3348038e+000  4.7945943e-001
  1.2281206e+000 -1.8728700e+000  1.8387010e-001
 -2.4712816e+000 -5.2880838e-001  6.9274434e-002
 -7.1968398e-001 -2.6436249e+000  6.8384925e-001
  5.6165386e-002 -9.7238881e-001 -1.4750225e-001
  1.8566064e+000 -2.8266950e+000  5.8581043e-001
 -4.8095526e-001 -3.5879486e-001 -1.2401674e-001
  5.0589559e-001 -2.9655650e+000  9.1669707e-001
  1.0300692e+000 -3.2563958e+000  1.2709148e+000
 -1.6179009e+000 -1.5342356e+000  2.0063862e+000
  9.1319504e-001 -8.5957459e-001  2.0211077e+000
 -3.7109823e-002 -6.0210178e-001  2.7381423e+000
  4.9796346e-001 -1.0408411e+000  2.6036034e+000
  3.1479925e-001 -2.4140604e+000  2.4841667e+000
  1.0873238e-001 -4.3787769e-001  3.1586232e-001
  4.8467206e-002 -9.5989306e-001 -3.1589880e-001
 -1.0495840e+000 -3.2954682e+000  8.3806799e-001
 -7.8925254e-001 -1.4118312e+000 -2.5634716e-001
  1.2596745e+000 -1.1617903e+000 -1.0133421e+000
  1.1346603e+000 -2.8760913e+000 -4.4145666e-001
 -2.1638234e+000 -3.3468483e+000  1.9928902e-001
 -3.7845012e-001 -2.6289637e+000 -8.7384867e-001
  1.3086268e+000 -3.0077067e+000 -6.5965745e-001
 -8.2595219e-001 -1.7999752e+000  4.0631225e-001
  8.6797932e-002 -1.3516622e-001  6.2448534e-001
  1.2331100e+000 -7.3522392e-001  1.5808621e+000
  1.6526611e+000 -1.6997026e-001  1.1783580e+000
  7.7646517e-001 -2.5215934e+000  1.8632589e+000
 -1.8621805e+000 -8.9481835e-003  3.4442313e-001
  5.8804460e-001 -1.5403399e+000  2.8349413e-001
  6.8839170e-001 -1.8410239e+000  1.0249008e+000
  3.0691343e-001 -1.5399475e+000  1.7550163e+000
  1.3726463e+000 -3.8589115e-001  1.0650995e+000
  4.8817610e-001 -2.0691253e+000  1.7534882e+000
  2.8037962e-001 -1.7283062e+000  1.0420442e+000
 -1.6805047e+000 -1.3417683e+000  1.2823825e+000
 -5.1666067e-001 -6.5708185e-001  1.0847780e+000
  3.4208036e-001  4.1884942e-001  9.2016102e-001
 -1.7421395e+000 -1.0775154e+000  2.5745439e+000
 -2.5171303e-001  8.0276683e-002  1.2299326e+000
 -1.4828718e+000 -4.6197120e-001  1.2197297e+000
  6.2768123e-001 -9.3718471e-002 -7.0499447e-002
 -6.3507385e-001 -1.0771791e+000  7.0895916e-001
 -4.5385318e-001 -2.1428768e+000  1.4497858e+000
 -4.3802077e-001 -1.7338709e+000  1.4342373e+000
 -7.1671823e-002 -2.1046788e+000  1.4735865e+000
 -3.8683813e-001 -5.4745478e-001  4.3258256e-001
 -1.4589167e+000 -1.9827823e+000  1.1732477e+000
 -1.6281534e+000 -1.6185077e+000  8.0083641e-001
 -9.3861544e-001 -6.7728242e-001  9.6228714e-003
  9.9911220e-001 -3.0530330e+000  7.6394316e-001
  9.6187163e-001 -4.7878462e-001 -5.2011728e-001
  1.1266376e+000 -3.0656214e-001 -5.2513958e-001
 -4.7114269e-001 -1.8144508e+000  9.8528069e-001
 -1.1977744e+000 -1.6011250e+000  1.5604233e+000
 -2.7135878e-001 -2.6083298e+000  2.4759363e+000
  1.1194379e+000 -8.0825027e-001  1.6078077e+000
 -4.1302858e-001 -4.1956167e-002  1.6906428e+000
 -3.4333052e-001 -1.2573091e+000  1.9175450e+000
  7.5235887e-001 -9.2634762e-001  7.0657941e-001
  3.0450238e-001 -2.9971001e+000  1.2258784e+000
  4.7167264e-001 -1.6762962e+000  1.5401011e-001
  1.5843394e+000 -2.1983627e+000  3.1788091e-001
  1.6101298e+000 -2.9061422e+000  1.0571649e+000
  9.3518571e-002 -6.6984313e-002 -2.4227783e-002
 -8.3785835e-001 -3.9987180e-001 -1.2818402e-001
 -2.4348168e-001 -2.0866497e+000 -2.0402771e-001
 -2.8756322e+000 -1.3848617e+000 -4.5809233e-001
  9.3237205e-002 -2.0824826e+000 -1.0439475e+000
 -5.6503735e-002 -3.7489237e+000  1.8882851e-001
  3.3605933e-001 -2.0590014e+000 -2.0540193e-001
 -2.8475438e+000 -2.1100340e+000  1.5398139e+000
  8.3888379e-001 -1.9625157e+000  1.2643946e+000
 -2.0836648e+000 -1.3584385e-001  1.6096749e+000
  1.2362161e+000  2.6158792e-001  5.7178018e-001
 -8.2289287e-001  3.6544051e-001  9.2683808e-001
  3.4165052e-001 -2.7510295e+000  2.1048093e+000
  3.1995109e-001 -2.3582983e-001  7.1078830e-001
 -4.8881574e-001 -2.6438589e+000  2.2902109e+000
  4.5624807e-001 -6.4668798e-001  1.0428526e+000
 -3.8657179e-002 -2.7371865e+000  2.2498117e+000
  1.5266798e+000 -3.4817742e-001  1.7852870e-001
 -2.0223244e-001 -5.8450622e-001  1.0270598e-001
 -4.8769599e-001 -9.0970514e-001 -4.1204080e-001
  7.6246909e-001 -2.8910542e+000 -1.9944191e-001
  1.3051678e+000 -3.4863754e+000 -7.0382731e-002
 -8.9571456e-001 -2.6501699e+000  4.5494473e-001
 -5.3998987e-001 -1.3235574e+000  1.6918850e-001
 -1.1804565e+000 -1.2636445e+000  7.3781137e-001
 -1.3134637e+000 -1.7963392e+000  1.2799646e+000
 -1.2238442e+000 -2.7049682e+000  1.8584122e+000
 -1.4193542e+000 -7.4984014e-001  1.0083203e+000
  1.3091891e+000 -1.3373074e+000  6.5302241e-001
  1.8829229e+000 -2.8502369e+000  1.0397862e+000
  2.7515253e-001 -2.9754787e+000  8.5385901e-001
 -3.9233836e-001 -3.1736006e+000  4.4401880e-001
 -1.4420146e+000 -6.5714029e-001 -7.5197994e-001
 -1.1769444e+000 -2.8518416e+000  8.2151959e-001
  1.4538837e+000 -2.7413371e+000  5.5380106e-001
  2.3338013e+000 -1.2196337e+000 -4.9468149e-001
 -1.1846020e+000 -8.2518956e-001 -1.9242818e-001
 -2.6058135e-001 -3.0923451e+000  4.9150941e-001
 -2.5387512e-001 -2.5290049e+000  7.5153787e-001
  8.1869062e-001 -2.7241323e+000  1.8514831e+000
  1.1130383e+000 -2.3746057e-001  1.5079243e+000
  3.2949384e-002  5.2263671e-001  1.3014148e+000
 -3.2599899e-001 -1.4728898e+000  1.1652871e+000
 -8.2457976e-002 -9.7602995e-001 -7.2761509e-001
  5.5244252e-001 -8.5274335e-001 -1.6150810e+000
 -4.0572517e-001 -2.0695765e+000  1.2514625e-002
  1.2181533e+000 -2.4992768e+000  1.3077383e+000
 -1.9496544e-001 -9.2747081e-001  2.2033205e+000
  1.8822572e+000 -1.6610999e-001  1.7218882e+000
 -1.7999337e+000  8.3613803e-001  1.7514349e+000
 -6.7439479e-001 -2.0501603e+000  1.9257036e+000
  6.6502777e-001 -5.4705393e-001 -3.5397642e-001
  5.8519791e-001 -3.2161962e+000  4.9360291e-001
  5.6195491e-001 -7.4847714e-001 -6.4932258e-001
 -1.7328707e+000 -1.2076519e+000  1.0355730e+000
  5.8611581e-001 -1.3748926e+000  1.3265928e+000
  3.2736301e-001 -2.5718303e+000  2.2653780e+000
  6.7244918e-001 -2.9639277e+000  1.7679690e+000
  9.3672559e-002 -3.3744926e+000  1.0791446e+000
 -8.3197292e-001 -1.3507987e+000 -6.4016166e-001
 -8.2880375e-001 -3.1241127e+000  2.0419900e-002
  6.6700075e-001 -8.5047385e-001 -1.2587983e+000
  3.9955196e-002 -8.1496417e-001 -2.8332463e-001
  5.2507399e-002 -1.8815091e+000  1.3528594e+000
 -5.3037240e-001  4.3536162e-001  1.3688552e+000
  1.4036660e+000  3.6786834e-001  1.7482859e+000
 -1.7642673e+000 -1.5396302e+000  4.0271565e+000
 -2.9623392e-001  4.1069622e-002  2.4449227e+000
  1.9315983e-001 -3.4648681e-001  1.5429180e+000
 -5.6889553e-001 -8.9883886e-001  7.8794773e-001
  2.4366894e-001 -3.0350882e+000  6.1953543e-001
  9.1817161e-001 -2.1182217e+000 -6.2994162e-001
  8.9869171e-001 -2.6129391e+000 -2.6869985e-001
 -1.7796247e+000 -1.5396712e+000  5.9474796e-001
  9.7198191e-001 -2.4521733e+000  1.3709320e+000
  8.2270838e-001 -8.7157915e-001  1.5284712e+000
 -1.2721832e+000  6.6554336e-001  1.7125907e+000
  7.0532023e-002 -1.2742244e+000  2.1191274e+000
 -2.9027953e-001 -1.2653061e+000  1.5407441e+000
 -8.9778457e-001 -2.6259352e+000  1.8076340e+000
 -8.6715020e-001 -1.0911538e+000  6.4248113e-001
  2.6489075e-001 -5.5176311e-001 -1.5066772e-002
  9.0207772e-001 -5.9238800e-001 -5.3143776e-002
  3.2017914e-001 -2.1491022e+000  1.1358286e+000
 -1.0155445e+000 -2.3427156e+000  1.7765056e+000
 -1.0716243e+000 -1.2285578e+000  1.2500771e+000
 -1.4248108e-001 -5.1444556e-001  5.0384379e-001
  1.7390352e+000 -1.7861832e+000  3.5632164e-001
  2.9164358e-001 -2.6092508e+000  7.2752983e-001
  4.0883863e-001 -1.4684156e+000 -3.5307362e-001
  1.1765881e+000 -3.2313410e+000  1.8338941e-001
 -2.2989737e-002 -3.2694770e+000  5.8153920e-001
  9.9462575e-001 -1.5689293e+000 -4.9410174e-001
 -1.3845205e+000 -1.5054008e+000  1.7359618e-001
  1.2665643e-001 -3.2034441e+000  6.7390994e-001
 -3.5036734e-001 -1.3013615e+000  5.3348287e-002
 -1.8714507e+000 -9.8170810e-001  1.1220849e+000
  5.9860519e-001 -2.0525255e+000  2.2070892e+000
 -2.4998771e-001 -1.9298432e+000  3.2436135e+000
  1.0660713e+000  3.0547936e-001  1.5364568e+000
 -1.2367554e-001 -1.9811514e+000  1.8503091e+000
 -5.1090484e-001 -2.5338912e+000  5.3025821e-001
 -1.6140258e+000 -2.2186402e+000 -5.4595245e-001
 -2.7788914e-001 -3.1469497e+000 -3.8347747e-001
 -2.7288456e-001 -2.7804181e+000  5.6643361e-001
  2.4463280e+000 -2.4460651e+000  9.6145147e-001
  9.6697803e-001  2.6234767e-001  5.2824121e-001
 -9.0882608e-001  3.0960460e-001  7.0218178e-001
  4.5073109e-001 -1.6647056e+000  4.8746172e-001
 -1.7077301e+000 -1.0990616e+000 -1.4425155e-001
  1.1374117e-001 -3.3665341e+000  1.7673602e-001
  1.3354370e-002 -9.5260057e-001 -5.9290462e-001
  5.2082214e-001 -1.5111494e+000  7.9075957e-001
  4.6703012e-001 -1.6819302e+000  2.2543612e+000
  1.2333605e+000 -6.5656330e-002  2.0466266e+000
  7.9118006e-001 -2.1591541e+000  3.3030972e+000
  6.1924139e-001 -2.3637625e-001  1.3948062e+000
  7.2913762e-002 -1.9084274e-001 -3.5562607e-002
  7.0914530e-002 -2.1148097e+000 -5.0544757e-001
 -1.5622854e+000 -2.7306199e+000 -4.2777234e-001
 -1.0550795e+000 -2.8306029e+000 -1.3944643e-001
 -1.8995130e+000 -3.1199394e+000  1.3139889e+000
  2.8369604e-001 -1.2215074e+000  7.0331535e-001
  5.5886821e-001 -2.5182820e+000  1.7843046e+000
  1.4358168e+000 -1.9292628e+000  1.2237981e+000
 -5.9436779e-002 -2.0706420e+000  1.6993554e+000
 -1.1678069e+000 -7.9745794e-001  1.5554161e+000
  4.1765998e-001 -2.0411457e+000  2.0768788e+000
 -9.0678675e-001 -5.6274768e-001  1.6917724e+000
 -1.1294238e-001 -1.7154413e+000  1.8405488e+000
  6.7357653e-001 -1.9468915e+000  1.4385698e+000
 -4.1943259e-001 -1.5346315e-001  5.8230259e-001
 -5.4018433e-001 -5.0170834e-001  6.3821071e-001
 -6.9838337e-001 -2.6632434e+000  1.5683420e+000
  2.7336299e+000 -1.8548348e+000 -1.3276107e-001
 -3.2546212e-001 -1.3763921e+000  3.5871087e-001
 -1.3908001e+000 -1.3341545e+000  9.7084492e-001
  3.3160696e-001 -2.5445545e+000  1.9010217e+000
  1.3618454e+000  3.0958924e-001  9.2466289e-001
 -4.3481970e-001 -1.6837179e+000  2.9058326e+000
  3.7018566e-001 -2.2729306e+000  2.7260256e+000
 -9.2290854e-001 -1.0203283e+000  1.7425888e+000
 -1.5089866e+000  2.0100767e-001  7.8202209e-001
 -1.8961247e+000 -1.9748090e+000  2.1248019e+000
 -3.6255150e-002 -1.4212273e-001  1.0346414e+000
  3.9496040e-001 -6.6233042e-001  1.4585613e+000
  1.6893252e+000 -2.7618907e+000  1.9741567e+000
 -6.2694622e-001 -9.1559768e-001  8.0456718e-001
  7.4018283e-001 -2.5951010e+000  2.1825737e-001
 -8.7549172e-001 -3.3627329e+000  1.8096110e-001
 -1.0506175e-002 -2.0161393e+000 -1.0178549e+000
  5.3337207e-001 -2.3428486e+000 -4.6964006e-001
 -6.8370753e-001 -2.1964914e+000  7.6916276e-001
 -5.0092596e-001 -4.9470908e-001  7.5361839e-001
  1.3486964e+000  4.0966716e-002  4.6589706e-001
 -3.4940757e-001 -5.0870294e-001  1.1849698e+000
 -1.3161727e-001 -8.7963210e-001  9.5658582e-001
  1.9122489e-001 -2.6094816e+000  1.5323636e+000
 -7.2806199e-001 -2.2679761e+000  1.7063391e+000
  1.1386194e-001 -2.6734740e-001  7.6603134e-001
 -1.3757829e+000  3.1124792e-001  1.1849668e+000
  3.7909842e-002  9.9320324e-002  9.5404548e-001
 -6.9782738e-002 -1.6555129e+000  1.6946006e+000
 -4.2342380e-001 -6.9599836e-001  8.9848416e-001
  1.0290101e+000 -2.4627217e+000  1.1131788e+000
 -1.4136325e-001 -2.3603520e-001  1.3036067e-001
 -1.2313131e+000 -6.5317056e-001  7.2849336e-001
 -8.6391980e-001 -2.4919690e+000  1.6672895e+000
  2.1744812e-001 -1.9161509e+000  1.0400924e+000
  8.8188711e-001 -1.7517956e+000  9.5406048e-001
 -1.6418504e-001 -1.7203029e+000  1.9079379e+000
  3.9481262e-001  5.0875032e-001  1.5419175e+000
  1.6022184e+000 -1.2503447e+000  2.7974333e+000
  1.4293400e+000 -7.3786240e-001  2.3752508e+000
 -2.4808953e-001 -2.5892871e-001  1.6025822e+000
  3.0906870e-001 -2.7797744e+000  1.5065757e+000
  8.5495913e-001 -1.6145918e+000 -3.5991223e-001
  1.0435191e+000 -3.3124462e+000 -4.7367943e-002
 -5.8749029e-001 -3.4272610e+000  5.4865722e-001
 -1.4789756e+000 -2.0151919e+000  5.4471946e-001
  8.2135929e-001 -2.2375287e+000  5.5871622e-001
 -1.3128893e-001 -2.6823345e+000  1.2908503e+000
  2.0556298e-001 -7.0511212e-001  5.4515965e-002
  1.0793299e+000 -2.5669763e+000  6.9740972e-001
 -1.1003360e+000 -3.1799297e-001  2.0539116e-001
 -2.7944873e-001 -1.6054544e+000  9.0737235e-001
 -1.0977468e-001 -6.2364703e-001  3.1797427e-001
 -1.9078732e-001 -3.0480726e+000  1.1840513e+000
 -3.1520596e-001 -1.9034313e+000  6.7623009e-003
 -9.7399913e-001 -2.3119566e+000  7.6772968e-002
  4.4375155e-001 -6.8723894e-001 -1.2198902e+000
 -3.0077887e+000 -2.9922292e+000  9.8651815e-001
  7.5398356e-002 -2.8439504e+000 -4.7782072e-002
  1.7117558e+000 -1.3724185e+000 -1.4603013e+000
 -2.0687768e+000 -3.0227502e+000  3.8700051e-001
  4.2542180e-001 -2.3710219e+000 -4.9446195e-001
  1.0871506e+000 -1.5548480e+000 -6.9879794e-001
  4.7172248e-001 -5.4859658e-001 -6.0703289e-001
  1.7162001e-001 -6.8795786e-001 -1.5164255e-001
  9.8925016e-001 -2.2652442e+000  7.1143981e-001
 -8.2560837e-001 -2.2100074e+000  1.6967621e+000
 -1.3405474e+000 -5.3907911e-001  1.7891797e+000
  4.5931879e-001 -4.7163426e-001  1.9775056e+000
  5.2534142e-001 -8.0726164e-001  2.0649619e+000
 -2.7830541e-001 -1.8611054e+000  1.7078074e+000
 -3.1790794e-001 -3.3065024e+000  7.4251321e-001
 -1.3989608e+000 -2.9889656e+000 -5.6872266e-001
 -2.8064730e-001 -1.3207834e+000 -2.2059091e+000
 -1.1183636e+000 -2.9801757e+000 -4.9062128e-001
 -3.8946927e-001 -3.1866964e+000  5.4321318e-001
  5.5048089e-001 -1.1399113e+000  3.2587119e-001
  3.1449324e+000 -2.3231133e+000  1.0905922e+000
 -7.3158925e-001  3.1395210e-001  1.1373758e+000
 -7.1732214e-001  1.2024609e-001  1.0989786e+000
  2.5074558e+000 -1.7455602e+000  6.5115005e-001
  1.1423924e+000 -8.5359115e-001 -1.4855569e-001
 -2.2912304e-001 -2.1278817e+000  4.0938313e-001
 -2.0868175e+000 -3.0280125e+000  1.3819454e+000
  3.8865221e-001 -3.0242890e+000  1.2225925e+000
 -3.5196412e-001 -1.2522981e+000  1.2871590e+000
  1.3775088e+000 -1.6791947e+000  1.6152153e+000
 -1.8446276e-001 -5.7306772e-001  1.3943158e+000
  4.6497403e-001 -2.6593847e+000  1.6452986e+000
 -1.2054064e+000 -1.1561921e+000  4.2201533e-001
 -3.1242396e-001 -2.2989712e+000  2.7304819e-001
  8.1890950e-001 -2.2622696e+000  8.8501478e-002
  1.1055130e+000 -1.8982679e+000  4.5687131e-001
 -1.5267465e+000 -9.4328715e-001  1.3244091e+000
 -2.2844624e-001 -2.6524355e+000  2.1746611e+000
 -2.0086092e+000 -3.9232508e-001  1.4628814e+000
  9.5709071e-001 -7.5314093e-001  8.9365600e-001
 -8.3456506e-001 -2.3220637e+000  2.4979852e+000
 -1.2013176e+000  4.9050490e-001  1.3188562e+000
 -5.6118062e-001 -2.4020890e+000  2.4430592e+000
 -9.3270658e-001 -2.1528826e+000  1.4679991e+000
 -9.9441969e-001 -1.9603187e+000  3.2075239e-002
  1.1706642e+000 -1.2027366e+000 -2.0100934e+000
  1.3447497e+000 -3.0366663e+000 -1.1221000e+000
  3.3765638e-001 -2.9266936e+000  1.3981396e-001
  2.0602282e-001 -3.1896787e-001  3.4387574e-001
  8.8474059e-001 -1.2028369e+000  1.8981809e+000
  7.2330611e-001 -1.0473296e+000  2.2658410e+000
  8.6611466e-001 -1.0291787e+000  1.7189906e+000
  3.1624271e-002 -2.2609712e+000  1.5790187e+000
 -1.9539619e+000 -1.1899842e+000  4.5731834e-001
 -2.8172340e-001 -3.4975198e+000  4.8119155e-001
  8.4975948e-001 -1.1907191e+000 -1.1150770e+000
 -2.0827107e+000 -1.8947352e+000  8.4047919e-001
  3.7856320e-001 -2.0116289e+000  1.3453757e+000
  8.0571277e-001 -2.7247161e+000  2.2234609e+000
  7.8280134e-001 -1.3081954e+000  9.9518986e-001
  9.8129777e-002 -1.8165379e+000  1.7127225e-001
 -8.4502848e-001 -2.3991822e+000 -4.6560342e-001
 -1.5023109e+000 -1.4705202e+000 -1.2146996e+000
 -1.5634364e+000 -2.7486285e+000 -1.0710838e-001
 -1.2209706e+000 -2.3696521e+000  4.7368414e-001
  1.0913969e+000 -2.2934047e+000  7.5428157e-001
  1.3616190e+000 -1.4388168e+000  9.9125889e-001
  5.1241084e-001 -2.5332394e+000  2.1891723e+000
 -1.0780809e+000 -1.2853033e+000  1.8378459e+000
 -3.7406205e-001  6.2875383e-002  4.2832195e-001
 -4.3074192e-001 -1.4889103e+000  7.8164733e-001
 -1.2795845e+000 -1.8548838e+000  1.0581887e+000
 -8.6064633e-001 -6.5814389e-001  5.6962776e-001
  2.5636089e-001 -2.7463300e+000  1.9173820e+000
  2.2662609e+000 -2.7081637e+000  1.8667797e+000
 -5.8812055e-001 -2.3558958e+000  2.6836961e+000
 -5.0765230e-001 -1.0985870e+000  1.7222603e+000
  1.1442423e+000 -5.5340011e-001  3.3905401e-001
  9.7876325e-001 -3.8808592e-001 -3.5572739e-001
 -1.5199582e+000 -4.6326282e-001  6.5996202e-002
 -4.6288043e-001 -1.0906854e+000  2.8776942e-001
  2.7138609e+000 -1.2121228e+000  1.4090962e-002
  3.0386336e-001 -4.6117196e-001  8.6497930e-001
 -7.3359464e-001 -1.4561905e+000  1.9554506e+000
  3.8270370e-001 -2.8423337e+000  2.1515594e+000
  1.5289692e-001 -1.5589783e-001  1.6359715e-001
  4.3097672e-001 -7.1200102e-001 -2.3509113e-001
  7.0694826e-003 -1.3408014e+000 -7.0557044e-002
 -2.5211898e-001 -2.3090592e+000  7.0883327e-001
  1.4009014e-001 -3.0921871e+000  1.6135293e+000
  1.0599566e+000 -1.6400036e-001  5.3187622e-001
  1.1733839e+000 -6.1065505e-002  1.0163579e+000
 -3.1708456e-001 -6.1728120e-001  1.9157408e+000
 -2.7792562e-001 -2.1785742e+000  2.6104979e+000
  1.6189184e+000 -2.0646632e+000  1.8703375e+000
 -4.2917044e-001 -1.4387977e-001  1.4571003e+000
  2.5445255e+000 -8.2332060e-001  1.1317120e+000
 -8.4298401e-001 -2.4595746e+000  2.8190801e+000
  2.3816749e-001 -1.0706413e+000  1.1764040e+000
  1.9289752e+000 -1.4079898e+000 -1.5211862e-002
  2.2649909e-001 -3.0675584e+000  5.8723832e-001
  8.6614635e-001 -1.4782705e+000 -6.1822066e-001
  3.3806393e-001 -1.6246716e+000  1.3798264e-001
  3.3915417e-001 -2.5113603e+000  1.5408219e+000
 -4.2840431e-001  1.3835812e-002  1.1068703e+000
 -2.5944883e-001 -1.1577529e+000  1.6357375e+000
  5.8565165e-001 -1.3331631e+000  6.9745517e-001
 -2.0197937e+000 -1.6393134e+000  7.1178859e-001
  3.2431975e-001 -8.8371231e-001 -5.2113145e-001
  4.2640424e-001 -3.0997989e+000  1.3363749e+000
  9.1224734e-001 -2.3974029e+000  1.9285029e+000
  3.5147581e-001 -1.0484704e+000  2.2116807e+000
 -1.0104704e+000 -2.1238817e+000  3.3478753e+000
  8.8264319e-001 -1.9102252e-002  1.1363608e+000
 -1.3000435e+000 -1.3549287e+000  1.2876908e+000
  6.7386264e-001 -3.4801050e+000  3.1112060e-001
 -1.1584889e+000 -2.4005456e+000 -1.3674091e+000
 -6.7844233e-002 -3.8026352e+000 -2.0050105e+000
 -6.5546689e-001 -2.9295513e+000 -2.3626992e+000
  7.2359326e-002 -2.1576454e+000 -1.9516645e+000
 -5.1545257e-001 -1.3193840e+000 -7.4698675e-001
  1.2913370e+000 -3.7638662e-001 -6.9417207e-001
 -1.3424957e+000 -7.9788210e-001  4.0870882e-001
 -1.1752442e+000 -9.3257972e-001  4.5524959e-002
  2.7092229e+000 -1.0023326e+000 -9.5021684e-001
 -3.3942007e-001 -1.9951198e+000  1.5594757e+000
 -1.0351615e+000 -1.2578218e+000  3.1525740e+000
 -1.0757299e+000 -7.9008955e-001  4.1054041e+000
  7.5658014e-001 -5.0300950e-001  3.0443295e+000
  4.9315573e-001 -1.5854780e+000  1.8890171e+000
 -5.5600137e-001 -2.1118187e+000  4.5957437e-001
  7.4271042e-002 -1.1935160e+000 -1.1454869e+000
  7.7177919e-002 -1.7011822e+000 -3.9221651e-001
  2.0148051e-001 -2.4250654e+000  1.2279850e+000
 -1.0808644e-001 -2.5059669e+000  2.4972207e+000
 -1.9551340e-001  3.0106889e-001  1.5699327e+000
  1.1555939e+000 -2.2130711e+000  2.6013299e+000
 -2.1745543e-001  5.4177137e-002  1.5603241e+000
 -6.1166921e-001 -1.6187760e+000  2.1703386e+000
 -5.8821741e-001  1.6506376e-001  6.0148643e-001
  3.6195564e-001 -2.6398575e+000  1.1253170e+000
 -4.7065090e-001 -2.3801363e+000  6.7168070e-001
 -1.8541380e+000 -3.0975421e+000  1.4043289e+000
 -4.4004967e-001 -1.5771216e+000  7.8698307e-001
 -1.1016786e+000 -9.2699773e-001  1.5370823e+000
  7.5599410e-001 -1.0184535e+000  1.7733219e+000
  7.4135244e-001 -3.5560489e-001  1.5612824e+000
  9.1503444e-001 -1.3649475e+000  1.6595633e+000
  8.5310545e-001 -1.9085023e+000  1.2854840e+000
 -4.2675237e-001 -2.1896350e+000  1.1575989e+000
 -1.5092589e-001 -2.3202727e+000  9.1279121e-001
 -1.8189845e+000 -2.2305809e+000  1.5474529e+000
  2.5064960e-001 -1.7844961e+000  1.0180672e+000
  2.4553182e-001 -6.1082705e-001  2.5687877e-001
 -3.3911571e-003 -2.4660636e+000  7.6949937e-001
 -2.9797541e-001 -2.2027418e+000  2.1953070e-001
  1.9863894e-001 -2.8039794e+000  3.7661893e-001
  1.2113311e+000 -3.1834680e+000  6.4281899e-001
 -2.0044296e-001 -4.7925496e-001 -7.5497461e-002
  2.8987653e+000 -2.6078797e+000  3.9453976e-001
  7.2656215e-001 -2.0614182e-001 -1.0201181e-001
  1.3104163e+000 -2.6795039e-001  2.4758097e-002
  3.7025476e-001 -2.2110855e+000  1.4360450e+000
 -1.4482828e+000 -3.0393695e-001  7.6646415e-001
  2.3124847e-001 -2.1904983e+000  1.1803546e+000
 -1.1436984e-001 -1.0924413e+000  8.9780377e-001
  7.3752661e-001 -2.8243334e+000  2.0526065e+000
  2.3061564e-001 -8.3208876e-001  1.4576115e+000
 -3.2450122e-001 -9.9285064e-002  1.2285424e+000
  1.2144595e+000 -1.1823777e-001  6.0380384e-001
  6.1507108e-001 -1.1403514e+000  1.0163433e+000
 -1.8210654e-001 -3.3346155e-001  4.1189181e-001
 -7.3006826e-001 -2.6873622e+000  1.3585069e+000
 -1.2035748e+000 -2.8609027e+000  1.1981396e+000
  9.0877006e-001 -2.1255928e+000  1.5342345e-001
  1.3421191e-001 -1.9239829e+000  6.1336983e-001
  4.0726347e-001 -3.3543835e-001  2.2460937e-001
  4.9124844e-001 -1.5177699e+000  1.1094125e+000
 -7.1969007e-001 -1.7718661e+000  1.3568636e+000
  1.6789780e+000 -1.2707502e+000 -1.0213240e-001
  5.2008037e-001 -2.6353337e+000  4.5065894e-001
 -2.9086265e-001 -1.5187281e+000 -2.4648477e-001
 -2.5407418e-001 -1.5350546e+000 -3.3496456e-001
 -2.2490624e-001 -1.0321524e+000 -3.6715770e-001
  7.5253393e-002 -1.9050112e+000  6.0249587e-001
  6.8797842e-001 -1.6149924e+000  9.4840651e-001
 -1.1599365e+000  7.9985423e-002  8.9585562e-001
  8.3559512e-001 -2.1845311e+000  1.3608610e+000
 -2.1544005e-001 -9.2366200e-002  3.6647270e-002
 -1.8113926e+000 -6.4191497e-001  4.8670139e-001
  3.6850929e-002 -2.1668218e+000  9.6841614e-001
  4.8057440e-001 -8.5066037e-001  5.3539696e-001
  1.4732389e-002 -2.3899010e+000  1.6427291e+000
  5.2660634e-001 -1.9713428e+000  9.6784393e-001
  1.1209034e+000 -2.3759395e+000  3.9725080e-001
 -1.2436013e+000 -5.6113496e-001 -5.8993800e-001
 -8.3765800e-001 -3.4862234e+000  3.6189696e-001
 -2.0161844e-001 -2.2018845e+000 -6.5393395e-001
 -1.2039460e+000 -2.7079682e+000  2.5214244e-001
  1.7926729e-001 -2.6053730e+000  6.4922186e-001
  1.3440620e+000 -3.9993250e-001  1.5927070e-001
  2.2268405e-001 -2.2072899e+000  2.1440371e+000
  1.8391427e+000 -1.8198540e+000  1.4302811e+000
 -1.4531011e-001 -1.0155641e+000  6.7061698e-001
 -4.0207876e-002 -2.0780841e+000  4.4774084e-002
 -4.1645084e-001 -3.5165002e+000  2.8315187e-001
  4.0864755e-002 -2.9588475e+000  2.4412017e-001
  9.9668180e-001 -4.5057566e-001 -1.6187662e-001
  6.7295226e-001 -6.0667137e-001  1.2570683e+000
 -5.0378320e-001  1.0639936e-001  1.6860794e+000
  3.5867645e-001 -1.2786574e+000  1.6817292e+000
 -1.5074658e-001 -2.9848337e+000  1.7196541e+000
 -1.8857278e+000 -1.3093901e+000  4.9300162e-001
 -1.2401277e+000 -1.5479177e+000  1.7785706e-001
  7.6498841e-001 -1.3976146e+000 -3.2692570e-001
 -1.3431313e+000 -1.2108611e+000  4.5284363e-001
 -1.6732614e+000 -2.6320457e+000  1.7506762e+000
  5.3358985e-001 -2.2555346e-001  4.8806311e-001
  5.0442530e-001 -2.2279099e-001  1.1191041e+000
  2.1347068e-001 -8.8248775e-001  1.6859459e+000
 -1.2964156e+000 -1.7713236e+000  1.8918624e+000
  5.9656508e-001 -1.0088316e+000 -3.1821805e-001
 -1.5223137e-001 -2.5744090e+000 -4.2993031e-001
 -2.0134814e+000 -1.3906049e+000 -9.7162846e-001
 -2.0434783e+000 -5.9358034e-001 -1.0076241e+000
 -1.1897300e-001 -1.9391040e+000 -7.1458414e-002
 -4.6894557e-002 -2.1120959e+000  5.7354062e-001
 -4.0484403e-001 -3.4757965e-001 -1.1117715e-001
 -1.6003118e-001 -7.6228409e-001 -6.4508543e-002
  1.2311648e+000 -5.8552313e-001 -7.0726647e-001
 -5.5393463e-001 -2.5858805e+000  6.8481350e-001
 -5.4331524e-001 -2.4819729e+000  4.0760747e-001
  1.4646622e-001 -1.1761149e+000 -6.5455960e-001
 -2.6487972e-001 -1.7810630e+000 -1.5422003e-001
  3.4180036e-001 -2.5417339e+000  5.1844580e-001
 -8.8627262e-001 -2.4950183e+000  1.6666075e+000
 -2.3223236e+000 -1.5341278e+000  2.6331537e+000
  4.5908025e-001 -1.7646219e+000  2.9078917e+000
 -7.9689953e-002 -1.8694891e+000  3.4097725e+000
 -1.3889769e-001 -2.0947300e+000  3.2058600e+000
  1.4220649e-001 -2.1388177e+000  2.7257239e+000
