   5.4104116e-01   5.0857636e-01
   5.2507485e-01   3.7589350e-01
   5.0724303e-01   4.6421030e-01
   5.2616698e-01   4.3883037e-01
   5.4254430e-01   4.1995333e-01
   5.2812345e-01   3.8944120e-01
   5.0224981e-01   4.9925527e-01
   5.0768836e-01   4.2670195e-01
   5.4335506e-01   3.5974630e-01
   5.3192582e-01   4.9396912e-01
   5.2033812e-01   3.7734978e-01
   5.2368396e-01   3.5799075e-01
   5.3380555e-01   3.0097023e-01
   5.3143158e-01   3.5003748e-01
   5.1942393e-01   3.1959500e-01
   5.3543336e-01   3.3711960e-01
   5.4338411e-01   4.6901583e-01
   5.3721931e-01   3.7192938e-01
   5.3527819e-01   3.7810702e-01
   5.2778635e-01   3.9994474e-01
   5.4260607e-01   3.7442901e-01
   5.2680579e-01   4.2526475e-01
   5.2728655e-01   4.4876247e-01
   5.4454943e-01   4.2786972e-01
   5.5582904e-01   4.9561452e-01
   5.1365724e-01   4.5200310e-01
   5.5267257e-01   4.4512990e-01
   5.4921722e-01   4.8603949e-01
   5.2036664e-01   3.7494121e-01
   5.1814486e-01   3.6985121e-01
   5.2867729e-01   4.1206948e-01
   5.2275447e-01   2.9899706e-01
   4.8789426e-01   4.0801147e-01
   4.8308418e-01   3.7175167e-01
   4.7606868e-01   4.3311458e-01
   4.3158631e-01   3.7946648e-01
   4.2456734e-01   2.9321131e-01
   3.7677910e-01   3.2941754e-01
   3.2553243e-01   3.4271763e-01
   2.6428204e-01   1.7995559e-01
   1.8830320e-01   2.3780118e-01
   1.2854557e-01   7.0993580e-02
   1.1110451e-01  -6.5564476e-02
   6.2152515e-02   1.9479641e-01
   1.0265238e-01   2.6852921e-01
   1.0669010e-01   4.2089772e-01
   8.2059570e-02   6.6165793e-01
   4.8751021e-02   8.5229121e-01
   3.3070145e-03   6.7727007e-01
  -3.5665497e-02   6.8316597e-01
  -6.0293503e-02   2.6914432e-01
  -1.2054112e-01   3.5550124e-01
  -1.3903171e-01   3.2818163e-01
  -1.4821621e-01   2.6808969e-01
  -1.8621951e-01   2.3689939e-01
  -1.7404365e-01   1.6386362e-01
  -1.9702474e-01   2.1145415e-01
  -2.0227450e-01   2.8968808e-01
  -1.7850848e-01   1.9999596e-01
  -1.8291361e-01   1.5693925e-01
  -1.4022992e-01   2.0130194e-01
  -1.0860742e-01   1.3699317e-01
  -9.2635291e-02   1.3346528e-01
  -5.1901362e-02   1.8041262e-01
   4.8308456e-03   5.7540140e-02
   5.3008879e-02   1.0133376e-01
   8.4928403e-02   1.4082359e-01
   1.4191350e-01   1.4700106e-01
   1.5790332e-01   1.0223118e-01
   2.2460707e-01   1.6255201e-01
   2.7280975e-01   9.1434643e-02
   2.8845537e-01   2.3561978e-01
   2.8970680e-01   1.9633302e-01
   2.9332698e-01   1.5112909e-01
   3.0779055e-01   1.5839361e-01
   3.1372431e-01   1.4566261e-01
   3.2978941e-01   2.8712033e-01
   3.2708528e-01   1.8093626e-01
   3.8646566e-01   3.3664180e-01
   4.1798628e-01   2.4466381e-01
   4.7018808e-01   3.2343615e-01
   5.0672863e-01   3.4313813e-01
   5.6027368e-01   3.0125457e-01
   6.0117064e-01   3.3336510e-01
   6.3465367e-01   3.2601644e-01
   6.6205597e-01   3.7842817e-01
   6.5833885e-01   3.3666518e-01
   6.8602021e-01   3.5316225e-01
   6.6530608e-01   2.2109861e-01
   6.7794507e-01   4.0348521e-01
   6.7399852e-01   3.7667737e-01
   6.8212336e-01   3.0747539e-01
   6.8208357e-01   4.2009977e-01
   7.0578713e-01   3.8379483e-01
   6.8011492e-01   3.2911104e-01
   6.8571329e-01   3.6129505e-01
   6.7878982e-01   3.5419514e-01
   6.6991208e-01   4.2929240e-01
   7.0042968e-01   3.5330394e-01
   6.8527873e-01   3.0721958e-01
   6.5006417e-01   3.2883363e-01
   6.6767056e-01   3.9537206e-01
   6.6232360e-01   3.6521385e-01
   6.8637982e-01   3.7920048e-01
   6.4807116e-01   3.8782201e-01
   6.7328245e-01   2.8936725e-01
   6.7115620e-01   2.5047617e-01
   6.5909428e-01   3.3706234e-01
   6.5321337e-01   2.8621293e-01
   6.3944196e-01   4.2372596e-01
   6.3367619e-01   4.3934325e-01
   6.1566314e-01   3.5537870e-01
   6.1207123e-01   3.5567933e-01
   5.9819712e-01   2.9622535e-01
   5.8901569e-01   3.9154449e-01
   5.2656314e-01   4.6912582e-01
   4.9949929e-01   6.0296562e-01
   3.7817148e-01   4.6300375e-01
   2.1687542e-01   6.2643488e-01
  -4.3186249e-03   7.5259961e-01
  -2.6722555e-01   7.8786651e-01
  -6.0205014e-01   9.3494789e-01
  -9.6570404e-01   9.1216589e-01
  -1.3101655e+00   9.5257907e-01
  -1.5877062e+00   6.7523441e-01
  -1.7588738e+00   6.5389036e-01
  -1.7698575e+00   3.2476875e-01
  -1.6398628e+00  -1.3186882e-01
  -1.4405289e+00  -6.0201380e-01
  -1.1206477e+00  -1.4092118e+00
  -7.7493475e-01  -2.1317138e+00
  -4.5337237e-01  -2.8249730e+00
  -1.6629355e-01  -3.4094262e+00
   5.8353571e-02  -3.9824873e+00
   2.4392538e-01  -4.1681994e+00
   3.4935371e-01  -4.5588742e+00
   4.4520131e-01  -4.8968802e+00
   5.6060067e-01  -5.0976810e+00
   6.8011396e-01  -5.4833224e+00
   8.3869770e-01  -5.5796273e+00
   1.0507144e+00  -5.3847829e+00
   1.3406446e+00  -5.2472061e+00
   1.6693521e+00  -4.9385657e+00
   2.0016715e+00  -4.5429094e+00
   2.3589077e+00  -4.2618081e+00
   2.6528685e+00  -3.6512730e+00
   2.8712056e+00  -2.9261390e+00
   2.9630494e+00  -1.9795383e+00
   2.8975971e+00  -1.3559576e+00
   2.7564197e+00  -7.8664987e-01
   2.4623313e+00  -3.5669059e-01
   2.1379873e+00  -1.1423700e-01
   1.7498133e+00   4.7279328e-02
   1.3945133e+00   2.3762826e-02
   1.0607228e+00  -2.2497238e-02
   7.9297343e-01   7.5554304e-02
   5.8070645e-01  -5.0522877e-02
   4.2365111e-01  -2.6290860e-02
   3.0960675e-01   1.7543416e-02
   2.5110162e-01  -1.1785223e-01
   1.9500133e-01  -2.4263800e-02
   1.6890349e-01  -3.6752996e-02
   1.3984520e-01   7.5078931e-02
   1.2214530e-01   1.5724681e-01
   9.5970861e-02   6.3580156e-02
   1.0322651e-01   1.4783866e-01
   6.7421752e-02   2.3304468e-01
   7.5108227e-02   2.3798306e-01
   4.5851432e-02   2.1561320e-01
   2.6285982e-02   2.2373024e-01
   3.0760287e-02   2.1850667e-01
   2.2435054e-02   1.8468963e-01
  -1.1825528e-02   2.8827312e-01
  -1.1576533e-02   1.5694142e-01
  -2.9037909e-02   1.8009341e-01
  -5.8388531e-02   2.4048719e-01
  -7.5403580e-02   1.3282660e-01
  -6.6578394e-02   1.4062798e-01
  -8.5062947e-02   1.2534694e-01
  -1.0848020e-01   2.1035686e-01
  -1.2253684e-01   9.6292637e-02
  -1.5080839e-01   1.7286524e-01
  -1.7894830e-01   1.9868846e-01
  -1.7398206e-01   1.1470559e-01
  -1.9449970e-01   7.3042974e-02
  -2.0780281e-01   1.6680693e-01
  -2.4844495e-01   1.8398813e-01
  -2.4514392e-01   1.0664697e-01
  -2.5487502e-01   5.5090228e-02
  -2.9027622e-01  -5.0896259e-03
  -3.1559165e-01   1.1899315e-01
  -3.2172664e-01   9.8145102e-03
  -3.4014982e-01   4.4868313e-02
  -3.4679764e-01   9.4663992e-02
  -3.8469657e-01   7.7469732e-02
  -4.2903477e-01   4.1952570e-02
  -4.1823804e-01   3.1487654e-02
  -4.5150130e-01   7.9004670e-02
  -4.6405773e-01   2.8095845e-02
  -4.8600802e-01   8.1562541e-02
  -5.2225882e-01   1.3014839e-02
  -5.2438851e-01  -1.9051347e-03
  -5.4253526e-01  -9.3617591e-02
  -5.6978096e-01   4.2633200e-03
  -6.0370754e-01  -6.4860789e-02
  -6.1367094e-01   2.5604233e-02
  -6.3766680e-01   2.3223592e-02
  -6.9783630e-01  -3.0935002e-02
  -6.9854306e-01   4.5315792e-02
  -6.9962301e-01  -9.2105588e-02
  -7.4311498e-01  -7.5938407e-02
  -7.7205984e-01   3.5376943e-02
  -7.9019794e-01  -1.9109644e-01
  -8.0394951e-01  -2.9502387e-02
  -8.2572712e-01  -1.8333389e-01
  -8.4693517e-01  -1.5116516e-01
  -8.8381310e-01  -7.2858018e-02
  -9.0252983e-01  -1.5963173e-01
  -9.2358098e-01  -1.3423803e-01
  -9.5067250e-01  -1.9769710e-01
  -9.6846373e-01  -1.4299754e-01
  -9.7176737e-01  -1.5703689e-01
  -9.8799493e-01  -1.1286547e-01
  -1.0310956e+00  -8.2891518e-02
  -1.0466775e+00  -2.4063341e-01
  -1.0731454e+00  -2.4499015e-01
  -1.1026455e+00  -2.4657773e-01
  -1.1518071e+00  -2.7623057e-01
  -1.1452274e+00  -3.0123364e-01
  -1.1682426e+00  -2.5254061e-01
  -1.2248052e+00  -3.1863284e-01
  -1.2119687e+00  -2.6153105e-01
  -1.2713669e+00  -4.1050257e-01
  -1.2934319e+00  -4.8285204e-01
  -1.3199871e+00  -4.1535471e-01
  -1.3260606e+00  -5.0004217e-01
  -1.3701661e+00  -5.4263544e-01
  -1.4091515e+00  -4.8644606e-01
  -1.4377968e+00  -5.6507193e-01
  -1.4591729e+00  -5.7753692e-01
  -1.5028747e+00  -4.9917831e-01
  -1.5507066e+00  -6.1865348e-01
  -1.5789430e+00  -6.4161377e-01
  -1.6172301e+00  -5.5467767e-01
  -1.6525977e+00  -7.2671668e-01
  -1.7125921e+00  -7.1543087e-01
  -1.7569888e+00  -7.6366764e-01
  -1.8156156e+00  -6.3534628e-01
  -1.8590274e+00  -6.7909299e-01
  -1.9150040e+00  -6.6759737e-01
  -1.9659138e+00  -7.1118910e-01
  -2.0080084e+00  -7.9848731e-01
  -2.0822129e+00  -8.4015839e-01
  -2.1270245e+00  -8.8645878e-01
  -2.1841286e+00  -7.5254225e-01
  -2.2451929e+00  -9.5134546e-01
  -2.2740401e+00  -9.0598273e-01
  -2.3665788e+00  -9.6646401e-01
  -2.4336693e+00  -1.0389662e+00
  -2.4806319e+00  -1.0789931e+00
  -2.5286053e+00  -1.0879925e+00
  -2.6022210e+00  -1.1272353e+00
  -2.6417865e+00  -1.0901140e+00
  -2.6724126e+00  -1.1138828e+00
  -2.7428471e+00  -1.1970909e+00
  -2.7813157e+00  -1.4138219e+00
  -2.8096569e+00  -1.3873937e+00
  -2.8589398e+00  -1.4577513e+00
  -2.8814860e+00  -1.6557762e+00
  -2.9066192e+00  -1.8026548e+00
  -2.9264730e+00  -1.7588684e+00
  -2.9173308e+00  -1.6077195e+00
  -2.9193504e+00  -1.5399804e+00
  -2.9231479e+00  -1.3458109e+00
  -2.9153939e+00  -1.1623414e+00
  -2.9287256e+00  -1.1715367e+00
  -2.8954628e+00  -1.4901798e+00
  -2.8781601e+00  -1.8443873e+00
  -2.8436526e+00  -1.8283255e+00
  -2.7888005e+00  -1.8971051e+00
  -2.7372807e+00  -1.9700367e+00
  -2.7129247e+00  -1.9814009e+00
  -2.6430619e+00  -2.0082531e+00
  -2.5722939e+00  -2.0646260e+00
  -2.5229308e+00  -1.9615788e+00
  -2.4168882e+00  -2.0452313e+00
  -2.3526459e+00  -2.1099912e+00
  -2.2697685e+00  -2.0752913e+00
  -2.1918804e+00  -2.0727792e+00
  -2.0962141e+00  -1.9765161e+00
  -1.9971232e+00  -2.0332967e+00
  -1.9194282e+00  -1.9750385e+00
  -1.8067542e+00  -1.9576009e+00
  -1.7338157e+00  -1.7916206e+00
  -1.6376192e+00  -1.7657695e+00
  -1.5475477e+00  -1.6231406e+00
  -1.4388079e+00  -1.7424562e+00
  -1.3479737e+00  -1.5342599e+00
  -1.2785915e+00  -1.5593799e+00
  -1.1873496e+00  -1.5167252e+00
  -1.0888970e+00  -1.4787636e+00
  -1.0086009e+00  -1.3274775e+00
  -9.1964487e-01  -1.2209188e+00
  -8.5800282e-01  -1.2218535e+00
  -7.9235020e-01  -1.1440214e+00
  -7.0897166e-01  -1.0127108e+00
  -6.3354640e-01  -8.7729659e-01
  -5.6493249e-01  -9.1793341e-01
  -5.0689044e-01  -8.0550251e-01
  -4.7237227e-01  -7.4214970e-01
  -3.8375168e-01  -6.4501222e-01
  -3.6396281e-01  -6.2507865e-01
  -2.8389953e-01  -4.9681478e-01
  -2.6052499e-01  -4.0153446e-01
  -2.3155879e-01  -4.7188255e-01
  -1.7542593e-01  -4.2279388e-01
  -1.2936493e-01  -3.6291351e-01
  -1.0364044e-01  -2.5616108e-01
  -5.8712668e-02  -1.7337746e-01
  -4.2042411e-02  -3.1291814e-01
  -1.3879948e-02  -1.5530588e-01
   4.4511009e-02  -2.4974548e-01
   2.8660003e-02  -7.7561641e-02
   6.8456653e-02  -4.6015037e-02
   8.4005131e-02  -7.3070941e-02
   1.1314299e-01   1.0728812e-01
   1.3666685e-01  -6.4686969e-03
   1.4221543e-01   8.2308809e-02
   1.5796629e-01  -1.0704347e-01
   1.8799175e-01   5.7914674e-02
   1.9100094e-01   1.0423849e-02
   1.9287969e-01   1.6615411e-01
   2.1647102e-01   1.3646143e-01
   2.3090987e-01   1.3301091e-01
   2.4338308e-01   7.7633957e-02
   2.5659078e-01   9.5276374e-02
   2.5008449e-01   2.2208502e-01
   2.8393505e-01   1.4139827e-01
   2.9444609e-01   1.0014788e-01
   2.9491279e-01   1.8170790e-01
   2.9680417e-01   1.2743037e-01
   3.1941980e-01   1.7538726e-01
   3.1616255e-01   1.7740913e-01
   3.1139569e-01   1.7393967e-01
   3.3574376e-01   1.8299669e-01
   3.2322735e-01   1.9997666e-01
   3.5612778e-01   1.4942034e-01
   3.5316860e-01   1.8660107e-01
   3.4747754e-01   2.2407769e-01
   3.7626558e-01   1.2394479e-01
   3.5663537e-01   1.8249764e-01
   3.5564086e-01   1.6031455e-01
   3.7762548e-01   2.4056583e-01
   3.8040739e-01   1.6784138e-01
   3.8723859e-01   2.1732902e-01
   3.8137519e-01   2.1144215e-01
   3.9267261e-01   2.6904871e-01
   4.0331705e-01   2.1691568e-01
   4.0637387e-01   2.4107049e-01
   4.0040242e-01   2.2494624e-01
   4.0917265e-01   2.6163879e-01
   4.3633100e-01   1.6089768e-01
   4.5104656e-01   2.2771458e-01
   4.1457814e-01   1.8925904e-01
   4.3239512e-01   1.9031185e-01
   4.5218941e-01   2.4349534e-01
   4.5205992e-01   2.3623472e-01
   4.4654085e-01   2.6856172e-01
   4.5837541e-01   2.2828562e-01
   4.6429508e-01   1.9537242e-01
   4.5369042e-01   2.2889577e-01
   4.5861229e-01   1.8209599e-01
   4.4653445e-01   2.0551135e-01
   4.5552876e-01   1.2712681e-01
   4.5603472e-01   1.1193751e-01
   4.8469903e-01   1.5536798e-01
   4.8708268e-01   2.4815528e-01
   4.7144761e-01   2.1942383e-01
   4.8549371e-01   2.4147057e-01
   4.8834276e-01   2.2279063e-01
   4.7824018e-01   8.3859685e-02
   5.0098185e-01   1.1946900e-01
   4.8718627e-01   1.9087241e-01
   4.9260434e-01   1.9916048e-01
   4.9658079e-01   2.2656343e-01
   4.9174537e-01   1.6979746e-01
   5.0172769e-01   1.4084469e-01
   4.8924622e-01   1.1444610e-01
   4.9511012e-01   1.7668011e-01
   4.8030005e-01   1.8185254e-01
   4.8972587e-01   1.9352418e-01
   5.2002596e-01   7.4549793e-02
   5.0824519e-01   2.6868763e-01
   5.0785759e-01   9.6254725e-02
   5.0400545e-01   2.1172358e-01
   5.1294536e-01   8.9929114e-02
   5.3935045e-01   2.3322606e-01
   5.1500909e-01   2.2814226e-01
   5.2337293e-01   2.4613540e-01
   5.2028669e-01   2.0916233e-01
   5.1573356e-01   7.2683367e-02
   5.2834169e-01   1.9864768e-01
   5.3845714e-01   1.3482673e-01
   5.3040228e-01   1.8372602e-01
   5.2177947e-01   2.5870135e-01
   5.4413634e-01   1.4581266e-01
   5.4915277e-01   1.3441413e-01
   5.4615416e-01   1.0982212e-01
   5.4282254e-01   2.5228896e-01
   5.3273533e-01   1.6827201e-01
   5.4445262e-01   1.5776426e-01
   5.3708465e-01   2.6412481e-01
   5.2658451e-01   2.0509980e-01
   5.5016939e-01   2.5678146e-01
   5.3902955e-01   1.1905501e-01
   5.1822933e-01   1.7316229e-01
   5.2484705e-01   8.4166479e-02
   5.4642764e-01   1.5597883e-01
   5.1953469e-01   1.8447435e-01
   5.5845495e-01   9.8770522e-02
   5.3867477e-01   1.9171192e-01
   5.4469940e-01   1.1030178e-01
   5.3344327e-01   1.1257815e-01
   5.6379827e-01   1.1988197e-01
   5.2054732e-01   1.0627070e-01
   5.7314013e-01   8.8298948e-02
   5.5702807e-01   8.4572536e-02
   5.3620294e-01   1.9098368e-01
   5.4113328e-01   4.4025727e-02
   5.6558898e-01   1.3073841e-01
   5.5370470e-01   1.4245458e-01
   5.5771641e-01   2.0893074e-01
   5.6900518e-01   1.5604706e-01
   5.3732799e-01   1.3299453e-01
   5.5229602e-01   1.1349895e-01
   5.5340877e-01   6.4042423e-02
   5.5253478e-01   1.4461280e-01
   5.4164739e-01   6.6281917e-02
   5.5012019e-01   1.7322464e-01
   5.5019441e-01   1.3897538e-01
   5.5894517e-01   8.6172144e-02
   5.6374876e-01   3.2591467e-02
   5.5792508e-01   1.0261493e-01
   5.7299937e-01   1.8519563e-01
   5.6778185e-01   2.2067044e-01
   5.5613774e-01   8.8336156e-02
   5.6070624e-01   1.1452313e-01
   5.6112749e-01   2.3043999e-01
   5.5756984e-01   1.2388159e-01
   5.6674396e-01   1.0977851e-01
   5.8822352e-01   2.1764475e-01
   5.8615018e-01   1.3328621e-01
   5.7073570e-01   1.1633064e-01
   5.7328712e-01   1.2496769e-01
   5.2682002e-01   1.9535672e-01
   5.6336613e-01   9.9420266e-02
   5.7530234e-01   1.1946878e-01
   5.7117254e-01   1.7059458e-01
   5.4799764e-01   1.9737617e-01
   5.7013962e-01   2.3131204e-01
   5.7259277e-01   1.1583446e-01
   5.8012144e-01   1.6975162e-01
   5.8079253e-01   1.2333455e-01
   5.7874138e-01   1.0024265e-01
   5.8270578e-01   1.5924672e-01
   5.5718729e-01   1.4816254e-01
   5.7287767e-01   1.5918131e-01
   5.4773349e-01   1.2940080e-01
   5.8692429e-01   1.6289975e-01
   5.8421502e-01   1.1221752e-01
   5.7135014e-01   6.5994999e-02
   5.7423286e-01   2.9230539e-02
   5.5331265e-01   1.6292562e-01
   5.7151255e-01   1.3877718e-01
   5.6548248e-01   7.0213858e-02
   5.6190797e-01   1.5278643e-01
   5.7952288e-01   1.8825825e-01
   5.6469105e-01   1.7684640e-01
   5.6357029e-01   2.3220309e-01
   5.7204534e-01   9.0558236e-02
   5.7590491e-01   1.9962290e-01
   5.8422885e-01   1.7715297e-01
   5.8566125e-01   5.4771208e-02
   5.7746473e-01   1.6670804e-01
   5.6707743e-01   2.1867845e-01
   5.7444997e-01   1.4407917e-01
   5.7569914e-01   1.6218110e-01
   5.8418656e-01   1.1737221e-01
   5.7863776e-01   1.2953911e-01
   5.6142450e-01   1.9600036e-01
   5.6973302e-01   1.0990581e-01
   5.7694678e-01   2.4718883e-01
   5.7859829e-01   1.3079519e-01
   5.8075973e-01   1.0892331e-01
   5.7331738e-01  -2.5063521e-02
   5.8119984e-01  -8.1429579e-02
   5.7097312e-01  -1.8972921e-01
   5.7763688e-01  -1.2317053e-01
   5.9676066e-01   5.9142782e-02
   6.0322524e-01   2.1764987e-01
   6.0679844e-01   4.0240032e-01
   5.9113422e-01   6.1514483e-01
   5.6967889e-01   8.0780318e-01
   5.9163307e-01   5.5664433e-01
   5.7446997e-01   3.7338167e-01
   5.7490169e-01   2.1845193e-01
   5.8715042e-01   1.0664988e-01
   5.9058108e-01   1.5866256e-01
   5.6924578e-01   2.3063360e-01
   6.0060934e-01   9.5245242e-02
   5.8371629e-01   9.8206385e-02
   5.6592913e-01   2.1641202e-01
   5.9089281e-01   1.1383752e-01
   5.8519877e-01   2.0487212e-01
   5.8487178e-01   8.9672960e-02
   5.9211004e-01   9.5276914e-02
   5.8083722e-01   1.6228651e-01
   5.8881285e-01   1.8957942e-01
   5.7637057e-01   1.5374465e-01
   5.6213360e-01   1.2949550e-01
   5.7621595e-01   8.3962894e-02
   5.8658338e-01   1.5372653e-01
   5.8655306e-01   2.1199406e-01
   5.8026467e-01   1.9078702e-01
   5.8458911e-01   1.5018594e-01
   5.8734349e-01   1.9909079e-01
   5.8877111e-01   1.5173435e-01
   5.6433652e-01   3.0254749e-01
   6.0612868e-01   9.8156133e-02
   5.7812655e-01   1.5559506e-01
   5.7744931e-01   1.1278110e-01
   5.7239283e-01   2.4004387e-01
   5.8405284e-01   1.6318997e-01
   5.5907688e-01   1.0223811e-01
   5.7002971e-01   2.1676718e-01
   6.0499166e-01   2.4548954e-01
   5.7494101e-01   1.4575497e-01
   5.9415730e-01   2.1988478e-01
   5.8194588e-01   2.0479247e-01
   5.6981669e-01   1.5724168e-01
   5.7038308e-01   6.5733304e-02
   5.7878685e-01   1.6458232e-01
   5.8790012e-01   1.6508849e-01
   5.8704332e-01   1.0307869e-01
   5.9361960e-01   1.0579229e-01
   5.8408852e-01   7.7354005e-02
   5.9277735e-01   1.2890224e-01
   5.9572279e-01   3.9279307e-02
   5.9066879e-01   6.9501914e-02
   5.8274264e-01   1.2826091e-01
   5.8136507e-01   2.2523927e-01
   5.7345492e-01   1.2616103e-01
   5.9284991e-01   1.5563967e-01
   5.8869036e-01   2.3343605e-01
   5.8179932e-01   5.5024646e-02
   5.9700370e-01   3.8401807e-02
   5.8217753e-01   7.1849140e-02
   5.9621735e-01   1.1372845e-01
   5.7878754e-01   1.1380930e-01
   5.9104166e-01   6.8811191e-02
   5.8121207e-01   2.1972904e-01
   5.7886875e-01   5.8114023e-02
   6.0864660e-01   1.7241733e-01
   5.9552419e-01   1.6203902e-01
   5.8461986e-01   2.0408182e-01
   5.9299693e-01   9.7950809e-02
   5.8512417e-01   1.4171869e-01
   6.0833579e-01   1.0960231e-01
   5.9425920e-01   1.0474562e-01
   5.9675370e-01   2.3604022e-01
   5.7982564e-01   1.8381496e-01
   5.8115377e-01   1.6059396e-01
   5.7786162e-01   7.2559788e-02
   5.8420440e-01   7.8959102e-02
   5.9810030e-01   2.0162800e-01
   5.9933428e-01   1.5687727e-01
   5.9084282e-01   7.9118435e-02
   5.8098615e-01   1.4266444e-01
   6.1410354e-01   1.7390784e-01
   6.0856483e-01   1.8308304e-01
   6.0504870e-01   1.6566931e-01
   5.8652053e-01   6.8950678e-02
   5.8447683e-01   1.4771051e-01
   5.6909188e-01   8.3317766e-02
   5.8912967e-01   1.3357454e-01
   5.7918633e-01   1.1253583e-01
   5.5729789e-01   2.5081395e-02
   5.6347359e-01   1.1636934e-01
   5.2857677e-01   8.4232996e-02
   5.4029046e-01   7.0633437e-02
   5.2747249e-01  -2.4084898e-04
   5.0867839e-01   2.0722555e-01
   4.5552165e-01   1.0773058e-01
   4.1614090e-01   1.2547429e-01
   3.4894704e-01   1.5196914e-01
   3.0038248e-01  -6.6393416e-03
   2.2048008e-01  -3.2847097e-02
   1.6630955e-01   1.1750298e-01
   1.2345231e-01  -3.2005114e-02
   1.1342745e-01   6.8840877e-02
   1.2185676e-01   4.3587305e-02
   1.3534724e-01   3.9584082e-02
   1.0794287e-01   1.1258051e-01
   7.7835445e-02   3.1808536e-04
   5.6791946e-02   2.5446916e-03
   2.4309959e-02   2.8085652e-02
  -1.3684621e-02   5.0615468e-02
  -4.6241668e-02   6.6960140e-02
  -9.6641136e-02   1.2797820e-01
  -9.6365023e-02   1.2295301e-02
  -1.1399561e-01  -6.6665973e-02
  -1.5166934e-01   2.5313183e-02
  -1.3449469e-01  -9.0460435e-02
  -1.4948428e-01  -4.5710248e-02
  -1.1556681e-01  -1.9016616e-01
  -1.1433953e-01  -3.9760830e-02
  -8.9909290e-02  -9.5008541e-02
  -5.1279886e-02  -8.2586997e-02
  -2.6093915e-03  -1.9106472e-01
   3.3234203e-02  -1.1499080e-01
   8.1034258e-02  -9.7178387e-02
   1.1715899e-01  -2.2924711e-01
   1.5918254e-01  -1.4968333e-01
   2.2079868e-01  -1.6398805e-01
   2.5520626e-01  -1.3050259e-01
   2.9628539e-01  -1.7082516e-01
   3.4816860e-01  -1.6590106e-02
   3.5734997e-01  -8.5440503e-02
   3.6099818e-01  -1.1509017e-01
   3.5418009e-01  -1.5699163e-01
   3.7348297e-01  -8.8448784e-02
   3.8742738e-01  -3.4149178e-02
   3.8196267e-01  -2.4754963e-03
   4.2813810e-01  -2.2955435e-02
   4.3544893e-01  -2.7926020e-02
   4.8763081e-01   1.2491513e-01
   5.5708618e-01   1.0241247e-01
   5.7818845e-01   3.6877969e-02
   6.4500501e-01   8.3357365e-02
   6.5075692e-01  -7.6587888e-03
   6.9798697e-01   4.8833267e-02
   6.9407581e-01   8.9602786e-02
   7.2073902e-01   9.7476318e-02
   7.0326920e-01   6.7841511e-02
   7.2919243e-01   9.6217239e-02
   7.5714340e-01   1.6410376e-01
   7.2731146e-01   9.2824874e-02
   7.5071058e-01   8.9104713e-02
   7.3276291e-01   1.6215034e-01
   7.4045085e-01   2.5334292e-01
   7.3316324e-01   8.2072576e-02
   7.6112537e-01   9.3029578e-02
   7.4597617e-01   1.8684818e-01
   7.4325578e-01   1.5581404e-01
   7.2995209e-01   5.8251007e-02
   7.2950879e-01   3.0906928e-02
   7.3562082e-01   5.5577167e-02
   7.4398234e-01   6.8206506e-04
   7.2332565e-01   1.3496316e-01
   7.1189646e-01   5.4219115e-02
   7.0281546e-01   5.0706235e-02
   7.2722351e-01   1.4425069e-01
   6.9503651e-01   3.7793030e-02
   7.0886953e-01   3.3914742e-02
   6.9883923e-01   3.7388656e-02
   7.0261714e-01   1.0132007e-01
   6.6252566e-01   4.0153011e-02
   6.8453228e-01   1.1329023e-01
   6.5975607e-01  -2.9609860e-02
   6.5555643e-01   1.6725046e-01
   6.1128219e-01   1.7409130e-01
   5.8328396e-01   2.8936437e-01
   4.9652005e-01   1.9183179e-01
   3.6924722e-01   3.2748200e-01
   1.7232161e-01   3.9215295e-01
  -5.2231441e-02   4.6538977e-01
  -3.6866460e-01   6.0108569e-01
  -7.1518927e-01   6.7353985e-01
  -1.0646665e+00   6.3385560e-01
  -1.3929018e+00   6.7932424e-01
  -1.6401008e+00   4.8173718e-01
  -1.7019759e+00   2.6672389e-01
  -1.6901883e+00  -7.1213897e-02
  -1.5081308e+00  -5.9677365e-01
  -1.2375019e+00  -1.2704180e+00
  -8.9906823e-01  -1.9946317e+00
  -5.7846932e-01  -2.7254150e+00
  -2.6754665e-01  -3.3655859e+00
  -1.4686339e-02  -3.8583570e+00
   2.0790757e-01  -4.2920236e+00
   3.5164106e-01  -4.6619253e+00
   4.5560745e-01  -4.9181709e+00
   5.3582343e-01  -5.2840446e+00
   6.6072909e-01  -5.5976366e+00
   7.8924456e-01  -5.8209541e+00
   9.6897203e-01  -5.8547174e+00
   1.2297509e+00  -5.6154700e+00
   1.5401007e+00  -5.3080071e+00
   1.8901109e+00  -4.9781589e+00
   2.2306264e+00  -4.6468550e+00
   2.5384123e+00  -4.1130201e+00
   2.8268983e+00  -3.4205995e+00
   2.9699065e+00  -2.6620565e+00
   3.0391702e+00  -1.6343814e+00
   2.9129162e+00  -1.1578663e+00
   2.6702961e+00  -4.6598571e-01
   2.3964856e+00  -4.9055308e-01
   2.0490926e+00  -1.6280459e-01
   1.6618455e+00  -1.2479920e-01
   1.2976135e+00  -2.2857374e-01
   9.8837584e-01  -1.1822069e-01
   7.4142755e-01  -2.3588944e-01
   5.4980922e-01  -2.8316279e-01
   4.3618833e-01  -2.2626408e-01
   3.3647061e-01  -3.3375152e-01
   3.0081628e-01  -3.3045484e-01
   2.4311480e-01  -3.3463276e-01
   2.0797655e-01  -1.5927110e-01
   1.8379365e-01  -1.8715003e-01
   1.9146663e-01  -2.5257349e-02
   1.5647662e-01  -6.3637466e-02
   1.4281427e-01  -1.4127355e-01
   1.1439972e-01  -1.1848597e-01
   1.1095535e-01  -3.3155862e-01
   1.1607411e-01  -1.9629141e-01
   9.0411346e-02  -1.3909484e-01
   9.5206162e-02   6.5228756e-02
   8.2843685e-02  -1.5069732e-02
   7.4291695e-02   3.6046112e-01
   3.2548522e-02   5.3959532e-01
   3.1788703e-02   4.9918132e-01
  -1.5576567e-02   2.6537895e-01
  -1.8624264e-02  -5.3736687e-02
  -3.9962485e-02   1.2994606e-02
  -5.5735031e-02  -8.8652886e-02
  -4.3103097e-02  -5.2671779e-02
  -6.9076452e-02  -1.1158506e-02
  -9.7042832e-02  -1.8670256e-01
  -1.1305514e-01  -2.6710063e-01
  -1.2260827e-01   5.5404738e-02
  -1.3461922e-01  -1.5723573e-01
  -1.6182749e-01  -1.8452546e-01
  -1.7610026e-01  -8.1795769e-02
  -1.9316345e-01  -1.5991983e-01
  -2.1495623e-01  -1.5425902e-01
  -2.3277175e-01  -7.3104479e-02
  -2.6143036e-01  -8.5821847e-02
  -2.7808665e-01  -1.5632110e-01
  -2.8880308e-01  -4.0702775e-02
  -3.2239380e-01  -1.2411775e-01
  -3.1847229e-01  -1.5408378e-01
  -3.4434494e-01  -9.6381628e-02
  -3.6502801e-01  -1.3568048e-01
  -4.0858347e-01  -1.7665719e-01
  -4.1043771e-01  -1.4188367e-01
  -4.2844509e-01  -1.8142069e-01
  -4.5081852e-01  -2.1776550e-01
  -4.6913867e-01  -1.7567780e-01
  -5.1888475e-01  -1.6536572e-01
  -5.2161372e-01  -2.2215041e-01
  -5.5771073e-01  -1.9685406e-01
  -5.6917990e-01  -3.0746872e-01
  -6.1825715e-01  -1.9903051e-01
  -5.9991240e-01  -2.4464874e-01
  -6.3463241e-01  -2.4634599e-01
  -6.5763808e-01  -2.8873177e-01
  -6.8623794e-01  -2.6984449e-01
  -7.0462760e-01  -1.5713892e-01
  -7.2219523e-01  -3.9042679e-01
  -7.5801840e-01  -2.6106635e-01
  -7.8752784e-01  -3.0301288e-01
  -8.0725170e-01  -3.6969856e-01
  -8.1265069e-01  -2.3024276e-01
  -8.5414752e-01  -3.0164841e-01
  -8.6068724e-01  -2.7570681e-01
  -8.7885249e-01  -3.7523266e-01
  -9.1277548e-01  -3.2710613e-01
  -9.4022905e-01  -2.4009055e-01
  -9.6331317e-01  -2.9533923e-01
  -9.9993648e-01  -4.1523105e-01
  -9.8981125e-01  -4.3161833e-01
  -1.0418013e+00  -3.8508302e-01
  -1.0482749e+00  -4.1334115e-01
  -1.0891199e+00  -4.0813776e-01
  -1.1163941e+00  -3.2468114e-01
  -1.1333455e+00  -4.7906188e-01
  -1.1521604e+00  -4.2940670e-01
  -1.1898268e+00  -4.9938274e-01
  -1.2246299e+00  -4.4885323e-01
  -1.2341933e+00  -5.0450435e-01
  -1.2918294e+00  -5.1494209e-01
  -1.2969151e+00  -5.9962584e-01
  -1.3314816e+00  -5.7010812e-01
  -1.3466725e+00  -5.8496411e-01
  -1.4000650e+00  -6.7320561e-01
  -1.4231118e+00  -6.2113708e-01
  -1.4659525e+00  -7.0102214e-01
  -1.5051876e+00  -7.3787685e-01
  -1.5366546e+00  -6.2006441e-01
  -1.6085988e+00  -6.7446619e-01
  -1.6062262e+00  -8.0944406e-01
  -1.6704620e+00  -7.1540191e-01
  -1.7249944e+00  -7.9077596e-01
  -1.7718876e+00  -8.1763997e-01
  -1.8344906e+00  -7.7943347e-01
  -1.8711674e+00  -7.7762598e-01
  -1.9414624e+00  -8.8106786e-01
  -1.9624186e+00  -8.6452370e-01
  -2.0320530e+00  -9.0077412e-01
  -2.1072525e+00  -1.0639408e+00
  -2.1408963e+00  -9.6917894e-01
  -2.2216311e+00  -1.0439538e+00
  -2.2639080e+00  -1.0198141e+00
  -2.3338421e+00  -1.1276738e+00
  -2.3743126e+00  -1.1294400e+00
  -2.4530521e+00  -1.1330197e+00
  -2.5123220e+00  -1.1776673e+00
  -2.5747878e+00  -1.0981301e+00
  -2.6148391e+00  -1.2798175e+00
  -2.6731595e+00  -1.2769041e+00
  -2.7111920e+00  -1.2383235e+00
  -2.7315064e+00  -1.3152348e+00
  -2.7758606e+00  -1.4759960e+00
  -2.8229084e+00  -1.4265321e+00
  -2.8369478e+00  -1.5128875e+00
  -2.8760874e+00  -1.5258321e+00
  -2.8917041e+00  -1.6715144e+00
  -2.8864349e+00  -1.7625831e+00
  -2.9024336e+00  -1.6428413e+00
  -2.8719652e+00  -1.7233837e+00
  -2.8877646e+00  -1.7586421e+00
  -2.8897171e+00  -1.9512767e+00
  -2.8360876e+00  -1.8661586e+00
  -2.8178282e+00  -1.9558823e+00
  -2.7785319e+00  -2.0896541e+00
  -2.7195334e+00  -2.1261217e+00
  -2.6844942e+00  -2.0393960e+00
  -2.6378848e+00  -2.1858149e+00
  -2.5863066e+00  -2.1272585e+00
  -2.4984512e+00  -2.1556154e+00
  -2.4323275e+00  -2.1590465e+00
  -2.3521663e+00  -2.0830681e+00
  -2.2720513e+00  -2.1762251e+00
  -2.1859478e+00  -2.0643242e+00
  -2.0925415e+00  -2.0383786e+00
  -1.9981491e+00  -1.9878205e+00
  -1.9295151e+00  -1.9527865e+00
  -1.8300719e+00  -2.0756189e+00
  -1.7276943e+00  -1.9564559e+00
  -1.6423844e+00  -1.9352608e+00
  -1.5665807e+00  -1.8350169e+00
  -1.4479834e+00  -1.7737983e+00
  -1.3603082e+00  -1.8225412e+00
  -1.2624202e+00  -1.6089443e+00
  -1.1860793e+00  -1.7456484e+00
  -1.0893954e+00  -1.5971367e+00
  -1.0164407e+00  -1.4076824e+00
  -9.1602027e-01  -1.4754151e+00
  -8.6215203e-01  -1.2933947e+00
  -7.5238560e-01  -1.3090120e+00
  -7.0296174e-01  -1.2003980e+00
  -6.3193096e-01  -1.1704635e+00
  -5.4994652e-01  -1.0149535e+00
  -4.9438414e-01  -8.7863138e-01
  -4.4484606e-01  -8.9911897e-01
  -3.7311393e-01  -8.1737148e-01
  -3.1697642e-01  -8.0756183e-01
  -2.8357585e-01  -5.5859543e-01
  -2.3832598e-01  -6.6906582e-01
  -1.7933967e-01  -6.1605019e-01
  -1.2873634e-01  -4.9912360e-01
  -1.1577909e-01  -5.3383479e-01
  -7.0345661e-02  -4.8869317e-01
  -3.8545895e-02  -3.6769146e-01
   5.7226197e-03  -2.6690099e-01
   2.0506751e-02  -3.7795640e-01
   3.5940051e-02  -2.5993337e-01
   8.4906549e-02  -3.6345876e-01
   1.0572329e-01  -1.9101137e-01
   9.7964028e-02  -1.7811829e-01
   1.5408870e-01  -1.2658077e-01
   1.6897912e-01   6.8977754e-02
   1.7015228e-01  -2.1868378e-01
   1.9304039e-01  -1.6531521e-01
   2.2458956e-01  -2.7344279e-02
   2.2626559e-01  -7.3359128e-02
   2.4329171e-01   4.5309349e-02
   2.5580890e-01   1.1845407e-02
   2.6351082e-01  -5.5133322e-03
   2.7391292e-01   3.3073230e-02
   2.8269223e-01   4.4703082e-02
   2.9232056e-01  -2.6184504e-02
   3.3052606e-01   1.3365705e-01
   3.0963913e-01   1.0456369e-01
   3.4037678e-01  -1.3812648e-02
   3.3480794e-01  -6.1312204e-02
   3.5398294e-01   4.0979471e-02
   3.6253564e-01   4.0302148e-02
   3.7410887e-01   1.3877950e-01
   3.6633538e-01   1.1660994e-01
   3.7408910e-01   3.9913217e-02
   3.7434157e-01   9.2190116e-02
   3.9416667e-01   1.1394093e-01
   3.8841518e-01   1.4361392e-01
   4.0615522e-01   1.8472926e-01
   4.1112077e-01   1.2449232e-01
   4.1683539e-01   8.4302357e-02
   4.1358520e-01   1.9082027e-01
   4.0608410e-01   2.1621833e-02
   4.2288905e-01   3.4017046e-02
   4.3024687e-01  -3.7631318e-02
   4.2843358e-01   9.7920818e-02
   4.4257265e-01   1.6868563e-01
   4.4709863e-01   1.7318037e-01
   4.4610937e-01   1.3498405e-01
   4.7956204e-01   1.0606429e-01
   4.6573654e-01   4.4211520e-02
   4.8545579e-01   1.4513260e-01
   4.7319985e-01   6.6203476e-02
   4.6721667e-01   7.5194043e-02
   4.9209633e-01   6.3698531e-02
   4.7476285e-01   2.5027215e-02
   4.7268740e-01   4.3369055e-02
   4.8314218e-01   1.2310003e-01
   4.9074438e-01   1.2835473e-01
   5.0359491e-01   9.8947914e-02
   4.9028484e-01   1.3240483e-01
   5.1252556e-01   1.4388090e-01
   4.9240592e-01   2.4694502e-01
   5.1648153e-01   2.1651242e-01
   5.2378785e-01   9.2677913e-02
   5.0632266e-01   2.2340379e-01
   5.0286451e-01   1.3501869e-01
   5.0788803e-01   1.7583810e-01
   5.1561875e-01   2.8313978e-01
   5.1126232e-01   1.8949836e-01
   5.5138048e-01   1.9236309e-01
   5.4067220e-01   1.8963659e-01
   5.2063326e-01   2.2827040e-01
   5.3899986e-01   4.5025080e-02
   5.4056853e-01   1.7292534e-01
   5.2370967e-01   1.7055704e-01
   5.5484315e-01   1.0306834e-01
   5.4761287e-01   1.4788841e-01
   5.5226159e-01   2.0744173e-01
   5.4543017e-01   1.5858478e-01
   5.4989014e-01   1.5335309e-01
   5.3460632e-01   1.0996258e-01
   5.5907692e-01   5.1037624e-02
   5.6551860e-01  -6.8745761e-02
   5.4520938e-01  -1.1576967e-02
   5.4253452e-01  -1.7771207e-01
   5.5519862e-01  -1.1935651e-01
   5.8707995e-01   1.2923039e-01
   5.9890476e-01   2.8913636e-01
   5.9164043e-01   4.4469193e-01
   5.8764782e-01   7.5411546e-01
   5.9491007e-01   6.7286707e-01
   5.7188780e-01   3.3394392e-01
   5.6930570e-01   3.5714263e-01
   5.8788831e-01   2.5145563e-01
   5.7538973e-01   1.8863835e-01
   5.9080148e-01   2.1863747e-01
   5.8274821e-01   7.9911080e-02
   5.7798513e-01   1.0553680e-01
   5.6874659e-01   1.9719172e-01
   5.8150119e-01   1.8029933e-01
   5.8492613e-01   1.9566363e-01
   5.7991052e-01   2.2481829e-01
   5.9385713e-01   1.5153015e-01
   5.8305213e-01   2.3944017e-01
   5.9889465e-01   2.2336478e-01
   5.6840626e-01   4.0569284e-02
   5.8928405e-01   1.5409100e-01
   5.8324833e-01   9.5543613e-02
   5.8280315e-01   1.7953173e-01
   5.7577122e-01   1.9120611e-01
   5.7348032e-01   2.0532664e-01
   5.9190150e-01   1.6258191e-01
   5.7498937e-01   2.3697290e-01
   6.1657540e-01   2.1452332e-01
   5.9173674e-01   2.4423306e-01
   5.8570518e-01   8.6721236e-02
   5.8492257e-01   2.6433575e-01
   5.9716875e-01   2.5638810e-01
   5.9843689e-01   2.4730593e-01
   5.9052716e-01   1.8142917e-01
   6.1162398e-01   2.4986189e-01
   5.7989844e-01   2.0645523e-01
   5.8350512e-01   1.1566652e-01
   5.7395705e-01   1.8595839e-01
   5.9246652e-01   1.6112522e-01
   5.9365825e-01   2.2624241e-01
   6.3178806e-01   1.5846556e-01
   6.0646581e-01   1.0763714e-01
   5.9504564e-01   1.5689767e-01
   5.9256026e-01   7.9239390e-02
   6.0339719e-01   1.8715024e-01
   6.2532614e-01   2.7457870e-01
   6.1393168e-01   2.2301673e-01
   6.0835842e-01   1.1791287e-01
   5.9301926e-01   2.0190744e-01
   6.0885707e-01   3.2265827e-01
   5.9343542e-01   2.0442291e-01
   6.0096563e-01   2.3910433e-01
   5.9490636e-01   1.4278563e-01
   6.0812090e-01   3.0132623e-01
   6.0790276e-01   2.2628704e-01
   5.9397796e-01   3.1264027e-01
   5.9307362e-01   1.9192232e-01
   5.9901493e-01   2.9077750e-01
   6.0779831e-01   2.1505400e-01
   6.0999986e-01   3.3361197e-01
   5.9499355e-01   3.1367028e-01
   6.0694958e-01   2.3658869e-01
   6.0059210e-01   2.9262928e-01
   6.1347071e-01   2.7370566e-01
   6.2771030e-01   1.6258586e-01
   6.1014094e-01   2.4524512e-01
   6.1015150e-01   1.6217753e-01
   6.1686257e-01   2.2829065e-01
   5.9230805e-01   1.5149102e-01
   6.1091764e-01   2.0114344e-01
   6.0869481e-01   2.2683766e-01
   6.2356664e-01   9.1675569e-02
   6.2203380e-01   1.7191820e-01
   5.9999138e-01   1.7134172e-01
   6.1498448e-01   1.8965498e-01
   6.1622943e-01  -2.6043513e-02
   6.0159828e-01   1.9217740e-01
   6.0134490e-01   1.0686803e-01
   6.0107626e-01   1.2501454e-01
   6.0812823e-01   1.2981619e-01
   6.0928247e-01   8.2062097e-02
   6.0467045e-01   1.9502498e-01
   6.1737845e-01   1.1945659e-01
   6.0521647e-01   5.2550005e-02
   6.2491077e-01   9.2774345e-02
   6.1571984e-01   7.7667649e-02
   6.0992907e-01   6.8409658e-02
   6.2773955e-01   2.0140883e-01
   6.1171656e-01   2.4281091e-02
   6.1682374e-01   1.4240651e-01
   6.2638480e-01   1.7516900e-01
   6.0949407e-01   1.3199595e-01
   6.2666441e-01   1.0253628e-01
   6.0906511e-01   1.8484223e-01
   6.1072402e-01   1.3867985e-01
   6.1211167e-01   5.1962065e-02
   5.9971068e-01   1.6350220e-01
   6.0092662e-01   8.8509482e-02
   6.3221378e-01   1.0961157e-01
   6.1797754e-01   1.2014067e-01
   6.0599286e-01   2.3474242e-01
   5.9659112e-01   2.5062811e-01
   6.1471233e-01   1.8646541e-01
   6.1468112e-01   1.2750120e-01
   6.0798122e-01   1.3803680e-01
   6.1209377e-01   5.3808035e-02
   6.2587405e-01   1.2551638e-01
   5.9773761e-01   2.2680404e-01
   6.0746401e-01   2.2238183e-01
   6.0885599e-01   9.9959428e-02
   6.1894818e-01   1.4611082e-01
   5.9868342e-01   1.3303064e-01
   6.2149860e-01   1.9295531e-01
   6.3961523e-01   5.9706443e-02
   5.9721479e-01   7.4831431e-02
   6.0182073e-01   1.7929124e-01
   6.3182246e-01   1.4249112e-01
   6.2935476e-01   2.3611644e-02
   6.1927201e-01   1.4496204e-01
   6.3541206e-01   1.1226208e-01
   6.0577993e-01  -5.2850678e-02
   6.0285112e-01   1.1382845e-01
   6.2481548e-01   1.5484484e-01
   6.1034290e-01   1.3029291e-01
   6.3100386e-01   1.3679982e-01
   6.0998039e-01   1.3352785e-01
   6.1457886e-01   5.3942374e-02
   6.0734302e-01   1.1634917e-01
   5.9896002e-01   1.5240417e-01
   6.2030546e-01   1.2582120e-01
   6.0227620e-01   4.0573855e-02
   6.1685339e-01   6.2347377e-02
   6.1893657e-01  -1.9674995e-02
   6.1099678e-01   1.4846380e-01
   6.0459664e-01   3.9456755e-03
   6.1943814e-01   3.6336628e-02
   5.9045762e-01   1.1179948e-01
   6.1072864e-01   5.3146813e-02
   6.0412814e-01   2.7399491e-02
   6.3045710e-01   1.9063374e-01
   5.9987099e-01   6.2605681e-02
   6.0841134e-01   6.9258560e-02
   6.0432323e-01   9.6675226e-02
   6.2662389e-01   9.6101606e-02
   6.1493046e-01   1.5867636e-01
   6.0832886e-01   1.7692993e-01
   6.1456771e-01   4.8654737e-02
   6.0570647e-01   1.3392756e-02
   5.9233740e-01   8.8700922e-02
   5.9107942e-01   4.5551090e-02
   6.0980666e-01   7.7343372e-02
   6.0845947e-01   1.3029619e-01
   6.1242316e-01   2.1864864e-01
   6.0422252e-01   2.8655759e-02
   6.3923928e-01   1.1259254e-01
   6.0073303e-01   6.8754980e-02
   6.0240944e-01   1.8029045e-01
   6.1837863e-01   1.6287476e-01
   6.0515775e-01   6.2728422e-02
   6.0485789e-01   9.5361078e-02
   6.1426483e-01  -1.7665068e-02
   6.0690055e-01   1.3918620e-01
   6.1861868e-01   1.1958984e-01
   6.2214521e-01   1.0379036e-01
   5.9785861e-01   1.5846103e-01
   6.0915349e-01   1.1476631e-01
   6.1913753e-01   9.8719267e-02
   6.2622585e-01   1.1599066e-01
   5.9414920e-01   1.2804917e-01
   6.1718107e-01   6.9155663e-02
   6.2530935e-01   8.6327547e-02
   6.0216731e-01   1.2046631e-01
   6.3645817e-01   2.2189372e-01
   6.0080659e-01   1.2605808e-01
   6.1391011e-01   1.8347928e-01
   6.0979771e-01   4.8956334e-02
   6.2548378e-01   1.6425922e-01
   6.0905988e-01   8.5669462e-02
   6.1602128e-01   6.7070986e-02
   6.2441422e-01   1.6289482e-01
   6.0837464e-01   8.6560604e-02
   6.2102156e-01   9.4528487e-02
   5.9753561e-01   1.8592700e-01
   5.9923841e-01   2.8149967e-02
   5.9255275e-01   1.4023056e-01
   6.0988311e-01  -3.4765083e-03
   5.9708137e-01   4.2723567e-02
   5.7713968e-01   6.7192581e-02
   5.9082578e-01   7.8357991e-02
   5.8324743e-01  -3.6184584e-02
   5.7741953e-01  -1.4632833e-02
   5.5348956e-01   5.6230070e-02
   5.5623582e-01   4.0264225e-03
   5.2781950e-01  -6.4911624e-02
   5.0280435e-01  -3.4234486e-02
   4.4152464e-01  -4.8871973e-02
   4.0118591e-01  -4.6350935e-02
   3.4031537e-01   3.3618690e-02
   2.5654216e-01  -9.4463951e-02
   1.7180015e-01   5.4347067e-02
   1.7474122e-01  -1.7400373e-03
   1.3661659e-01   1.0690222e-02
   1.4173668e-01   9.9342011e-02
   1.2513822e-01   5.7893501e-02
   1.3594130e-01   1.0399499e-01
   9.6526891e-02   1.9520222e-02
   6.0467340e-02   8.9183220e-02
   4.4423166e-02   8.7009115e-02
   1.5491591e-02   7.8210002e-02
  -4.1842105e-02   2.6240118e-02
  -7.5298535e-02  -3.5863519e-03
  -9.9294089e-02  -4.3708598e-02
  -1.0252280e-01  -1.6693358e-03
  -1.1644216e-01  -1.1710800e-01
  -1.5665231e-01  -7.5934041e-02
  -1.1717508e-01   1.9583989e-02
  -1.4533705e-01  -1.6227373e-01
  -1.0892220e-01  -1.8902272e-01
  -9.6306329e-02  -1.0452701e-01
  -5.3415112e-02  -1.8217196e-01
  -8.0862722e-03  -9.0439193e-02
   2.6685255e-02  -2.1139111e-01
   7.3321811e-02  -3.8539224e-01
   1.0579828e-01  -3.4911817e-01
   1.5507430e-01  -3.4625186e-01
   1.9818279e-01  -4.2510117e-01
   2.2342953e-01  -3.3417340e-01
   2.9093005e-01  -3.1325460e-01
   3.6440440e-01  -9.3216337e-02
   3.6495830e-01   5.0941356e-02
   3.8913159e-01   4.3680398e-01
   3.9569578e-01   5.4205843e-01
   3.7939042e-01   2.1974237e-01
   3.6250877e-01   1.0519903e-01
   3.7682017e-01  -2.9512535e-02
   4.2093807e-01  -1.1153908e-02
   4.3586799e-01   1.0470594e-01
   4.7827201e-01   7.5763507e-02
   5.1833445e-01   4.3098596e-02
   5.8189264e-01   1.2881605e-02
   6.0425417e-01  -4.0193814e-02
   6.4344963e-01   8.0158351e-02
   6.9377908e-01   1.7252505e-01
   7.0773387e-01   1.6498221e-01
   7.0150141e-01   6.6178011e-02
   7.3324442e-01   5.4896059e-02
   7.4225700e-01   1.0413365e-01
   7.5482958e-01   9.6875222e-02
   7.5376653e-01  -5.6918152e-02
   7.5126049e-01   8.2754663e-02
   7.5907066e-01   3.8119256e-02
   7.4549110e-01   4.9592396e-02
   7.5121126e-01   1.4362558e-01
   7.4282934e-01   7.9970415e-02
   7.6514373e-01   1.3428328e-01
   7.4374264e-01   8.1983533e-02
   7.4730433e-01   5.9370052e-02
   7.4307460e-01   9.8042224e-02
   7.2879005e-01   1.7720992e-01
   7.4112267e-01   6.7263964e-02
   7.2353321e-01   1.0263355e-01
   7.3750081e-01   1.4674059e-03
   7.2741935e-01   6.3669853e-02
   7.3858460e-01   8.9626117e-02
   7.0674625e-01   1.6821273e-01
   7.1924331e-01   1.1108449e-01
   6.8966738e-01   9.1823800e-02
   7.1619748e-01   1.4777554e-01
   7.1216010e-01   1.0324822e-01
   6.8737604e-01   1.3755202e-01
   6.6854789e-01   1.2799697e-01
   6.7998128e-01   1.8361234e-01
   6.4906558e-01   2.2505488e-01
   6.0211625e-01   1.8875024e-01
   5.5333549e-01   3.4723877e-01
   4.5543008e-01   3.1422191e-01
   2.8968167e-01   4.4892426e-01
   9.4536334e-02   6.9264462e-01
  -2.0318480e-01   6.4978200e-01
  -5.0682167e-01   7.7199610e-01
  -8.4369676e-01   7.3376460e-01
  -1.2010452e+00   8.5481098e-01
  -1.5064826e+00   9.0032297e-01
  -1.6848454e+00   5.8212222e-01
  -1.7122909e+00   3.0086853e-01
  -1.6114164e+00  -8.5752524e-02
  -1.3899556e+00  -6.6705386e-01
  -1.0796686e+00  -1.2744073e+00
  -7.3508017e-01  -2.2118042e+00
  -4.1428252e-01  -2.8051357e+00
  -1.4997841e-01  -3.5100286e+00
   8.4600081e-02  -3.9345622e+00
   2.7469870e-01  -4.2294192e+00
   3.9515923e-01  -4.4504059e+00
   5.4516355e-01  -4.9573109e+00
   5.8909033e-01  -5.2427146e+00
   7.2696463e-01  -5.4231358e+00
   8.9874306e-01  -5.6661181e+00
   1.0808307e+00  -5.5153017e+00
   1.3591437e+00  -5.3060890e+00
   1.6819953e+00  -5.1094618e+00
   2.0311485e+00  -4.6985716e+00
   2.3729425e+00  -4.3654941e+00
   2.6820238e+00  -3.7469483e+00
   2.9030167e+00  -2.9310013e+00
   3.0207589e+00  -2.2100635e+00
   2.9666498e+00  -1.3141276e+00
   2.8235959e+00  -7.9507372e-01
   2.5686073e+00  -3.5069260e-01
   2.2207241e+00  -7.6169793e-02
   1.8536957e+00  -2.4120278e-02
   1.5067247e+00  -7.9779314e-02
   1.1689590e+00   4.7619174e-02
   8.9409648e-01  -3.4319990e-02
   6.5374465e-01  -1.7437609e-02
   5.0556033e-01  -2.7491373e-02
   3.9813437e-01  -3.1677550e-02
   3.1677384e-01   2.9428639e-02
   2.5344504e-01  -3.3200801e-02
   2.3473919e-01  -8.0875604e-02
   1.9874175e-01  -5.2194414e-02
   1.7752502e-01   2.0581206e-02
   1.5952278e-01   1.3520061e-01
   1.3322832e-01   6.7375269e-02
   1.3158096e-01   7.9872288e-02
   1.1623261e-01   1.9330367e-01
   1.1119350e-01   1.5943791e-01
   8.5378955e-02   2.3276529e-01
   6.6674826e-02   3.4071414e-02
   6.9441364e-02   2.0783170e-01
   4.6272777e-02   6.6136108e-02
   2.9463670e-02   8.4657244e-02
   2.0496294e-02   1.4015140e-01
   1.8872139e-03   1.2304658e-01
  -1.2434055e-02   1.0928819e-01
  -1.3306972e-02   1.6295675e-01
  -4.4172417e-02   8.7383082e-02
  -5.9921542e-02   1.1721640e-01
  -8.7025451e-02  -6.2433774e-02
  -1.0111153e-01   5.0871840e-02
  -1.1102296e-01   3.6755001e-02
  -1.3457067e-01   2.5232553e-01
  -1.3858739e-01   1.6751561e-01
  -1.6458672e-01   1.2976287e-01
  -1.9483706e-01   1.7279383e-02
  -1.8629667e-01   1.0130008e-01
  -1.9882557e-01   1.7739913e-01
  -2.2291976e-01   4.9891055e-02
  -2.5218784e-01  -2.1690072e-02
  -2.6775046e-01   5.3401218e-02
  -2.9058359e-01   7.8271182e-03
  -2.8290609e-01   3.5184012e-03
  -3.3394690e-01   7.4353632e-02
  -3.3607460e-01  -4.8181358e-03
  -3.6865974e-01   9.9628226e-02
  -3.9491609e-01   4.7440498e-03
  -4.1755947e-01  -8.5170123e-02
  -4.2843266e-01   8.2766942e-02
  -4.3727881e-01  -5.4109625e-02
  -4.8694645e-01  -1.3255680e-01
  -5.1758496e-01  -1.0518555e-01
  -5.2929575e-01  -3.3053525e-02
  -5.3736548e-01  -6.1208119e-02
  -5.5974259e-01   1.0572095e-02
  -5.8297901e-01  -7.0120225e-02
  -5.9861931e-01  -1.1423695e-01
  -6.4619676e-01  -1.0607980e-01
  -6.5324167e-01  -1.2738948e-01
  -6.7372833e-01  -6.6351379e-02
  -7.0202961e-01  -1.4927675e-01
  -7.2833032e-01  -1.7792308e-02
  -7.5729248e-01  -1.1418955e-01
  -7.8180598e-01  -2.8187874e-01
  -8.0998700e-01  -1.6985255e-01
  -8.1678286e-01  -1.6354982e-01
  -8.4518730e-01  -1.7552804e-01
  -8.6228510e-01  -1.4549302e-01
  -9.0508736e-01  -7.2855263e-02
  -8.9699189e-01  -1.3069679e-01
  -9.1856255e-01  -1.0310295e-01
  -9.5275020e-01  -2.9888373e-01
  -9.8456448e-01  -6.7548743e-02
  -9.9039975e-01  -1.9703783e-01
  -1.0227562e+00  -2.7426195e-01
  -1.0459198e+00  -3.2556515e-01
  -1.0616854e+00  -2.5663563e-01
  -1.0991813e+00  -3.9823241e-01
  -1.1274795e+00  -3.1651437e-01
  -1.1511614e+00  -3.5913235e-01
  -1.2133730e+00  -3.7167028e-01
  -1.1971695e+00  -4.0224853e-01
  -1.2226531e+00  -3.8704757e-01
  -1.2614041e+00  -3.9353859e-01
  -1.2899146e+00  -4.5900928e-01
  -1.3119594e+00  -4.9371276e-01
  -1.3454061e+00  -4.6382244e-01
  -1.3993334e+00  -4.9375094e-01
  -1.4241747e+00  -5.1350122e-01
  -1.4416666e+00  -4.9202544e-01
  -1.5167717e+00  -5.8329631e-01
  -1.5279290e+00  -4.4977228e-01
  -1.5665026e+00  -5.8590840e-01
  -1.6185525e+00  -6.5834927e-01
  -1.6749680e+00  -6.0764508e-01
  -1.7199460e+00  -6.9615354e-01
  -1.7554129e+00  -7.1668546e-01
  -1.7967456e+00  -6.3581584e-01
  -1.8639271e+00  -8.2311443e-01
  -1.9053912e+00  -6.8985072e-01
  -1.9639936e+00  -7.9261590e-01
  -2.0048830e+00  -7.8891857e-01
  -2.0634457e+00  -8.3231200e-01
  -2.1299685e+00  -8.7576004e-01
  -2.2037990e+00  -9.6608234e-01
  -2.2632892e+00  -8.6854676e-01
  -2.3228363e+00  -9.3510948e-01
  -2.3695193e+00  -8.8246170e-01
  -2.4268502e+00  -9.2181081e-01
  -2.4709737e+00  -1.0345616e+00
  -2.5436065e+00  -1.1107094e+00
  -2.5953757e+00  -1.1976605e+00
  -2.6229716e+00  -1.1454635e+00
  -2.6810447e+00  -1.2425684e+00
  -2.7266493e+00  -1.3035469e+00
  -2.7647932e+00  -1.3893740e+00
  -2.8019907e+00  -1.3625290e+00
  -2.8436681e+00  -1.3504996e+00
  -2.8574659e+00  -1.3802277e+00
  -2.8901818e+00  -1.5775741e+00
  -2.9043107e+00  -1.5239524e+00
  -2.8970445e+00  -1.5604695e+00
  -2.9146470e+00  -1.5289496e+00
  -2.8808569e+00  -1.6447154e+00
  -2.8755541e+00  -1.7188652e+00
  -2.8621973e+00  -1.6999282e+00
  -2.8312905e+00  -1.8007383e+00
  -2.7838798e+00  -1.7979664e+00
  -2.7692659e+00  -1.9138530e+00
  -2.7330196e+00  -1.9396664e+00
  -2.6694614e+00  -1.8459686e+00
  -2.5873746e+00  -1.9552858e+00
  -2.5445841e+00  -2.1150403e+00
  -2.4596081e+00  -1.9934105e+00
  -2.4075395e+00  -2.0122970e+00
  -2.3275831e+00  -2.0319331e+00
  -2.2330291e+00  -2.0624318e+00
  -2.1412806e+00  -1.9623315e+00
  -2.0705744e+00  -2.0493985e+00
  -1.9945585e+00  -2.0106727e+00
  -1.8835630e+00  -2.0437627e+00
  -1.7833107e+00  -1.9544890e+00
  -1.6923156e+00  -2.1103700e+00
  -1.6299553e+00  -2.0670433e+00
  -1.5124267e+00  -2.0050564e+00
  -1.3948510e+00  -1.8239177e+00
  -1.3117530e+00  -1.5949623e+00
  -1.1829220e+00  -1.3820398e+00
  -1.1121707e+00  -1.1408109e+00
  -1.0566955e+00  -7.3316302e-01
  -9.9252813e-01  -9.4644243e-01
  -8.9296915e-01  -1.0343319e+00
  -8.2823530e-01  -1.0780570e+00
  -7.6927861e-01  -1.0561162e+00
  -6.7564329e-01  -1.0525086e+00
  -6.0876469e-01  -9.6047234e-01
  -5.5795713e-01  -8.7123292e-01
  -4.8361984e-01  -8.0780267e-01
  -4.3045037e-01  -6.4270739e-01
  -3.5271344e-01  -6.9541767e-01
  -3.2821876e-01  -5.1751517e-01
  -2.7956736e-01  -4.1477873e-01
  -2.2955878e-01  -4.1163919e-01
  -1.6334101e-01  -4.5196292e-01
  -1.2446827e-01  -3.7513537e-01
  -9.4671489e-02  -3.9981226e-01
  -7.8411156e-02  -3.3318308e-01
  -2.1070782e-02  -2.0287419e-01
   8.2616200e-04  -1.8299926e-01
   2.7344619e-02  -9.9421207e-02
   4.9891523e-02  -2.0216679e-01
   8.4131962e-02  -1.1857474e-01
   1.0244170e-01   5.9012226e-03
   1.2094546e-01  -2.4972543e-02
   1.4003606e-01  -2.2758832e-02
   1.6178237e-01  -7.0408005e-02
   1.5928301e-01   1.0692736e-01
   2.0021771e-01   9.9707791e-02
   2.1457928e-01   8.8650892e-02
   2.4835863e-01   9.4888872e-02
   2.2968914e-01   1.5147623e-01
   2.2945590e-01   9.0176785e-02
   2.5770251e-01   1.0089476e-01
   2.6265295e-01   5.7694696e-02
   2.7183952e-01   1.5069245e-01
   2.7520914e-01   9.7792899e-02
   3.1198748e-01   2.1203178e-01
   3.1920173e-01   1.9202138e-01
   3.1933726e-01   8.8266472e-02
   3.2168049e-01   1.7123048e-01
   3.3052255e-01   2.0609074e-01
   3.4202948e-01   1.9086992e-01
   3.4001377e-01   1.3972903e-01
   3.6477030e-01   1.5040546e-01
   3.7569227e-01   1.6963924e-01
   3.8897469e-01   1.8924665e-01
   3.8323954e-01   1.2480430e-01
   3.8529495e-01   2.2935433e-01
   3.9141036e-01   1.1983857e-01
   4.0564191e-01   2.1860314e-01
   3.8613597e-01   1.4543457e-01
   4.0901624e-01   2.0217019e-01
   4.1302341e-01   2.8507420e-01
   4.2023503e-01   1.9517333e-01
   4.1724140e-01   2.6547240e-01
   4.2134171e-01   3.2962775e-01
   4.3286783e-01   3.5413368e-01
   4.3998432e-01   1.7161986e-01
   4.3404329e-01   2.8429051e-01
   4.3217253e-01   1.6175285e-01
   4.7640363e-01   1.6568855e-01
   4.5497858e-01   2.0106117e-01
   4.4808094e-01   2.0752502e-01
   4.6899054e-01   2.5150567e-01
   4.6778597e-01   2.8474664e-01
   4.5325760e-01   3.1207283e-01
   4.6753016e-01   2.1373767e-01
   4.7269116e-01   2.1797013e-01
   4.7334802e-01   1.4263299e-01
   4.8342070e-01   2.1735510e-01
   4.8394998e-01   1.8295232e-01
   4.8278834e-01   2.2645083e-01
   4.8318310e-01   3.5823529e-01
   4.8535414e-01   1.9856869e-01
   4.9260109e-01   1.9532925e-01
   5.1475750e-01   2.6213253e-01
   4.8497779e-01   1.8410566e-01
   5.1722338e-01   2.0974425e-01
   5.0573522e-01   2.6703021e-01
   4.9197756e-01   3.5385190e-01
   5.0084173e-01   2.7192311e-01
   4.9507362e-01   2.2480324e-01
   5.1823714e-01   1.8953832e-01
   5.0106045e-01   2.8227219e-01
   4.9889669e-01   3.2183284e-01
   5.1416945e-01   1.8856291e-01
   5.2522183e-01   2.9578817e-01
   4.9934949e-01   3.0766782e-01
   5.0589118e-01   3.3435396e-01
   5.2572510e-01   2.8313888e-01
   5.1024769e-01   2.0626958e-01
   5.1756907e-01   1.6461959e-01
   5.0728485e-01   2.7739174e-01
   5.2993913e-01   1.6256083e-01
   5.4658701e-01   2.8857732e-01
   5.2492950e-01   2.4214285e-01
   5.1441125e-01   3.7458514e-01
   5.3569494e-01   3.9016508e-01
   5.4867146e-01   3.0740457e-01
   5.4537423e-01   2.8975458e-01
   5.3014086e-01   2.8228428e-01
   5.1900486e-01   3.8218932e-01
   5.3060405e-01   3.8565315e-01
   5.5141611e-01   3.2650191e-01
   5.6085761e-01   3.1166766e-01
   5.4686202e-01   3.3841386e-01
   5.4864692e-01   3.1556592e-01
   5.4837428e-01   2.3849245e-01
   5.5268683e-01   2.7712420e-01
   5.4621059e-01   2.9240704e-01
   5.5028869e-01   3.0969320e-01
   5.3838512e-01   3.2124739e-01
   5.6091671e-01   3.4197312e-01
   5.7113626e-01   2.9518053e-01
   5.6449517e-01   3.9361881e-01
   5.5538773e-01   2.6500910e-01
   5.5509713e-01   4.1866187e-01
   5.7295830e-01   2.5974348e-01
   5.5478220e-01   2.7350504e-01
   5.7656995e-01   3.4387457e-01
   5.7768645e-01   3.4119439e-01
   5.6729346e-01   2.3786950e-01
   5.6015532e-01   2.6046452e-01
   5.6489657e-01   3.1223409e-01
   5.6194189e-01   2.4260386e-01
   5.7076312e-01   2.4844104e-01
   5.7448233e-01   2.9105797e-01
   5.4869376e-01   2.3355015e-01
   5.5836990e-01   3.5500738e-01
   5.5872233e-01   2.9470461e-01
   5.4750003e-01   2.1674209e-01
   5.5009278e-01   3.5186589e-01
   5.5980816e-01   3.4193562e-01
   5.7362007e-01   2.7321577e-01
   5.9938541e-01   2.1141872e-01
   5.7424784e-01   2.8971585e-01
   5.8052666e-01   3.6935875e-01
   5.9007388e-01   2.0206038e-01
   5.6808641e-01   3.0709992e-01
   5.7361843e-01   2.8517161e-01
   5.6726925e-01   3.0285391e-01
   5.6627607e-01   3.9217495e-01
   5.6672653e-01   2.8356660e-01
   5.8101480e-01   3.2282055e-01
   5.4593882e-01   3.0124564e-01
   5.7843215e-01   3.8494003e-01
   5.8054507e-01   2.8581616e-01
   5.6096435e-01   2.9762430e-01
   5.8019301e-01   3.0012275e-01
   5.7767411e-01   4.1096963e-01
   5.8021529e-01   2.3750341e-01
   5.7423384e-01   3.8433753e-01
   5.7678918e-01   2.8095499e-01
   5.8301249e-01   2.8975376e-01
   5.7616127e-01   3.2690945e-01
   5.7234406e-01   3.3488329e-01
   5.6701405e-01   2.9127278e-01
   5.6752454e-01   2.2696793e-01
   5.8914513e-01   2.3329852e-01
   5.6951906e-01   2.3196615e-01
   5.9209179e-01   2.2202078e-01
   5.6390019e-01   2.3709382e-01
   5.6516970e-01   3.3816953e-01
   6.0109777e-01   2.4955900e-01
   5.8087933e-01   2.2857847e-01
   5.6882510e-01   2.3037647e-01
   5.7387086e-01   2.3792840e-01
   5.7435923e-01   3.0354539e-01
   5.7071332e-01   2.4133751e-01
   5.7209336e-01   3.3033155e-01
   5.7366897e-01   2.6706117e-01
   5.7461524e-01   2.5849477e-01
   5.7717226e-01   2.9531315e-01
   5.5899073e-01   1.8517794e-01
   5.6757250e-01   2.2967489e-01
   5.8546233e-01   2.6177752e-01
   5.5633974e-01   3.1636053e-01
   5.6527905e-01   3.4136146e-01
   5.8249752e-01   3.8247584e-01
   5.8126173e-01   2.8804523e-01
   5.8289249e-01   2.1284303e-01
   5.7312894e-01   2.8277881e-01
   5.7486830e-01   2.1850211e-01
   5.5795479e-01   2.7431405e-01
   5.7012702e-01   2.1288064e-01
   5.6804027e-01   3.7931764e-01
   5.6655507e-01   2.9214405e-01
   5.5537751e-01   2.7590454e-01
   5.6555561e-01   3.1194724e-01
   5.6987771e-01   3.4281549e-01
   5.6446151e-01   2.1367806e-01
   5.6810075e-01   3.3691330e-01
   5.8108150e-01   3.6206240e-01
   5.8485868e-01   2.2317934e-01
   6.0345992e-01   1.7546562e-01
   5.8036739e-01   2.0628702e-01
   5.8045191e-01   2.7179629e-01
   5.6720037e-01   4.1427003e-01
   5.5660022e-01   2.3445716e-01
   5.7507546e-01   3.4355591e-01
   5.8503258e-01   3.8447132e-01
   5.6658630e-01   3.7699538e-01
   5.6581007e-01   3.5006403e-01
   5.6793058e-01   2.6852695e-01
   5.7362900e-01   2.7305465e-01
   5.6717973e-01   2.3841638e-01
   5.5663938e-01   2.9261569e-01
   5.6368575e-01   2.6312756e-01
   5.8710732e-01   2.7344621e-01
   5.6117912e-01   2.2337423e-01
   5.6858936e-01   2.8488080e-01
   5.5746328e-01   2.6860040e-01
   5.6505982e-01   2.9382705e-01
   5.8173646e-01   3.1475637e-01
   5.6229267e-01   3.7558984e-01
   5.6693371e-01   3.6824652e-01
   5.5407562e-01   3.0607961e-01
   5.6617058e-01   2.1936019e-01
   5.7118170e-01   1.7498368e-01
   5.6614948e-01   1.0040407e-01
   5.7318475e-01  -8.9906473e-02
   5.4808908e-01  -3.9724954e-03
   5.8211886e-01   1.9567811e-01
   5.7709996e-01   3.4269537e-01
   6.1424669e-01   3.8281735e-01
   5.8337801e-01   6.3743050e-01
   5.8589056e-01   9.1194010e-01
   5.8258608e-01   8.1644437e-01
   5.7575778e-01   5.6588366e-01
   5.5708681e-01   2.2130524e-01
   5.7506061e-01   4.2668026e-01
   5.6612351e-01   3.1347883e-01
   5.6182553e-01   1.8220904e-01
   5.5845345e-01   3.8151300e-01
   5.7382020e-01   3.3429834e-01
   5.7136768e-01   3.1181524e-01
   5.6766255e-01   3.8196781e-01
   5.7503782e-01   3.9381401e-01
   5.5857170e-01   3.4610907e-01
   5.7796706e-01   3.6468893e-01
   5.8446363e-01   2.6639495e-01
   5.5628497e-01   2.6972993e-01
   5.5644421e-01   3.2437226e-01
   5.7714386e-01   2.1939251e-01
   5.4746478e-01   3.5514153e-01
   5.7845937e-01   4.0814140e-01
   5.5472066e-01   2.4626633e-01
   5.6563971e-01   2.4986846e-01
   5.7476005e-01   3.4488342e-01
   5.5918753e-01   3.7422435e-01
   5.5621200e-01   2.9867146e-01
   5.4659043e-01   2.3091079e-01
   5.6794778e-01   2.8966443e-01
   5.6238206e-01   3.4060863e-01
   5.5337556e-01   2.6610829e-01
   5.6765491e-01   3.2821978e-01
   5.5451422e-01   3.2254826e-01
   5.5778600e-01   3.3405339e-01
   5.5356831e-01   3.3054414e-01
   5.7064447e-01   2.7572335e-01
   5.6972722e-01   4.0195025e-01
   5.7481744e-01   3.1484703e-01
   5.4873877e-01   2.4125054e-01
   5.7571093e-01   3.3829349e-01
   5.7162743e-01   3.1494054e-01
   5.6689108e-01   2.9961782e-01
   5.7101311e-01   4.0162639e-01
   5.8709976e-01   4.7319471e-01
   5.8732889e-01   3.7265983e-01
   5.6747132e-01   2.9862974e-01
   5.6603837e-01   3.6700886e-01
   5.6048056e-01   3.5096285e-01
   5.7162690e-01   3.7328787e-01
   5.6117385e-01   3.3731571e-01
   5.7582462e-01   4.1176987e-01
   5.7711225e-01   3.8612022e-01
   5.6686122e-01   4.1295442e-01
   5.7069618e-01   4.5980114e-01
   5.7722174e-01   4.0087350e-01
   5.9795057e-01   4.1180510e-01
   5.8787571e-01   4.3323433e-01
   5.8785543e-01   4.3749212e-01
   5.5465862e-01   4.0705916e-01
   5.6444900e-01   2.9779377e-01
   5.5303252e-01   4.2122236e-01
   5.6489467e-01   3.0950874e-01
   5.5153239e-01   3.8915479e-01
   5.4285070e-01   3.4685474e-01
   5.1512342e-01   3.3995712e-01
   5.0705030e-01   3.2985594e-01
   4.6952678e-01   3.2223529e-01
   4.5006304e-01   4.1836964e-01
   3.9923895e-01   2.7630787e-01
   3.4182938e-01   4.5616492e-01
   2.6244895e-01   1.8398751e-01
   2.1089454e-01   2.0559920e-01
   1.5352613e-01   2.8213061e-01
   1.3081548e-01   2.8622842e-01
   9.8018730e-02   4.0192654e-01
   1.0787171e-01   3.0530508e-01
   1.1149071e-01   3.6432297e-01
   7.5117926e-02   3.0639209e-01
   5.3070342e-02   3.0583698e-01
   6.7211198e-03   2.8817473e-01
  -5.3876320e-03   2.7073274e-01
  -5.2903394e-02   3.1847089e-01
  -8.6054401e-02   1.8611207e-01
  -9.8043172e-02   3.0240799e-01
  -1.4500044e-01   4.3060786e-01
  -1.4291811e-01   2.7108705e-01
  -1.5840204e-01   3.3662120e-01
  -1.6445112e-01   2.9857192e-01
  -1.6128892e-01   2.6646469e-01
  -1.4209176e-01   2.3664813e-01
  -1.2765062e-01   1.4575773e-01
  -1.0536536e-01   9.4019183e-02
  -8.7730841e-02   1.2080082e-01
  -3.8985025e-02   7.3620094e-02
  -3.3161161e-02   1.1836706e-01
   4.1751111e-02   1.5057763e-01
   8.4295875e-02   1.6270273e-01
   1.3940097e-01   7.1570833e-02
   1.8619854e-01   1.0059264e-01
   2.0717853e-01   9.8834691e-02
   2.6923909e-01   2.5782705e-01
   2.7570230e-01   1.7913393e-01
   3.0980072e-01   1.4697160e-01
   3.3770540e-01   1.1706150e-01
   3.2898708e-01   2.3881186e-01
   3.2963427e-01   2.7627800e-01
   3.4180547e-01   3.0536046e-01
   3.4125596e-01   1.8517442e-01
   3.6105085e-01   2.5026784e-01
   3.9764228e-01   1.9144156e-01
   4.4875307e-01   3.2281590e-01
   5.0741070e-01   3.6218917e-01
   5.6715210e-01   2.6088633e-01
   5.8614274e-01   2.3738810e-01
   6.3096086e-01   5.0221633e-01
   6.4940391e-01   4.2474655e-01
   6.6988163e-01   4.3122455e-01
   6.8528275e-01   3.9860600e-01
   7.0182558e-01   4.7120343e-01
   7.0733996e-01   3.8486817e-01
   7.1487130e-01   3.7618803e-01
   7.0882072e-01   4.7234351e-01
   7.0449896e-01   3.6867714e-01
   7.0501680e-01   4.3417563e-01
   6.9814418e-01   4.2373945e-01
   6.9229169e-01   3.8092094e-01
   7.2941037e-01   4.2978530e-01
   6.9646604e-01   5.0445844e-01
   6.9921938e-01   3.9372273e-01
   6.8778937e-01   4.9743756e-01
   6.7475892e-01   5.0717607e-01
   6.8482903e-01   4.4417151e-01
   7.0567542e-01   4.0489286e-01
   6.7534472e-01   4.5303506e-01
   6.7920314e-01   5.5008365e-01
   6.7124233e-01   4.9865773e-01
   7.0192939e-01   4.6513092e-01
   6.8925484e-01   5.4960847e-01
   6.6989201e-01   3.5458775e-01
   6.6929164e-01   4.3190411e-01
   6.6074803e-01   4.7596465e-01
   6.4685393e-01   4.6099760e-01
   6.5127779e-01   5.2024649e-01
   6.2915774e-01   4.7200400e-01
   6.0440543e-01   4.5284933e-01
   5.9387605e-01   5.9466305e-01
   5.5668919e-01   6.6697696e-01
   4.6254050e-01   6.3200112e-01
   3.4072555e-01   7.8925733e-01
   1.7123914e-01   8.5120320e-01
  -7.6575270e-02   1.0782303e+00
  -3.7009801e-01   1.2015511e+00
  -7.2171027e-01   1.1334692e+00
  -1.0545279e+00   1.1224151e+00
  -1.3906625e+00   1.1741271e+00
  -1.6372995e+00   1.0268895e+00
  -1.7622666e+00   8.1749419e-01
  -1.7407660e+00   4.8044837e-01
  -1.5678460e+00  -4.3862689e-02
  -1.3161187e+00  -7.0046591e-01
  -9.8148153e-01  -1.3434132e+00
  -6.1538355e-01  -2.1883998e+00
  -3.3568675e-01  -2.8057327e+00
  -7.0726889e-02  -3.4353595e+00
   1.5029831e-01  -3.7979324e+00
   3.0563421e-01  -4.0913160e+00
   3.9472665e-01  -4.3506539e+00
   5.0543829e-01  -4.6322521e+00
   6.1832129e-01  -5.0319578e+00
   7.4944803e-01  -5.3278586e+00
   9.2759101e-01  -5.4152998e+00
   1.1486960e+00  -5.0620274e+00
   1.4365118e+00  -4.8976042e+00
   1.7957533e+00  -4.5546203e+00
   2.1366483e+00  -4.2443886e+00
   2.4692182e+00  -3.7073317e+00
   2.7407010e+00  -3.0249644e+00
   2.9244346e+00  -2.2196496e+00
   2.9586772e+00  -1.4435108e+00
   2.8954358e+00  -6.5974439e-01
   2.6782786e+00  -1.3420108e-01
   2.3753812e+00   3.2405370e-02
   2.0011748e+00   2.3446393e-01
   1.6263741e+00   3.6866355e-01
   1.3044741e+00   4.4285676e-01
   9.7994175e-01   3.1817865e-01
   7.2272167e-01   2.5279796e-01
   5.3300072e-01   3.8517283e-01
   3.9465505e-01   2.2588458e-01
   3.0663926e-01   3.3249791e-01
   2.3888081e-01   1.6400865e-01
   1.8742648e-01   2.2105369e-01
   1.5240489e-01   3.0956703e-01
   1.5620501e-01   2.8679106e-01
   1.2180482e-01   3.2911263e-01
   1.1233880e-01   4.0836994e-01
   7.8380598e-02   3.6627279e-01
   8.4631981e-02   3.2817722e-01
   7.0946849e-02   4.7115691e-01
   5.3177785e-02   4.4232210e-01
   4.6421574e-02   4.1074666e-01
   2.1756559e-02   4.9249899e-01
   1.3383656e-02   4.6376201e-01
  -1.1133767e-02   5.1377957e-01
  -1.6760553e-02   5.0701230e-01
  -3.9230952e-02   4.7726591e-01
  -5.1542960e-02   3.3425089e-01
  -6.7221363e-02   4.3290421e-01
  -6.8248779e-02   5.4529249e-01
  -1.0287089e-01   4.4838880e-01
  -1.2674999e-01   5.6387711e-01
  -1.1217752e-01   4.6794577e-01
  -1.6935669e-01   4.5696000e-01
  -1.4701724e-01   5.5630843e-01
  -1.9657405e-01   3.9523084e-01
  -1.9782075e-01   4.3577308e-01
  -2.0407897e-01   3.8861774e-01
  -2.2810594e-01   3.0864067e-01
  -2.4047812e-01   4.5129739e-01
  -2.6182223e-01   4.2137263e-01
  -2.9002461e-01   3.2386890e-01
  -3.0669004e-01   3.4665803e-01
  -3.2069576e-01   1.9335959e-01
  -3.5220753e-01   1.1543807e-01
  -3.5043316e-01   3.8319267e-02
  -3.7728158e-01   6.1431399e-02
  -3.8862641e-01   2.5346210e-01
  -4.1170273e-01   5.1399630e-01
  -4.1873928e-01   6.6913715e-01
  -4.4700167e-01   9.9246178e-01
  -4.7665020e-01   8.7118288e-01
  -5.0131526e-01   5.3651579e-01
  -5.3615424e-01   3.9544111e-01
  -5.4223254e-01   2.7082655e-01
  -5.9378324e-01   4.1990986e-01
  -5.9917570e-01   2.6613600e-01
  -6.2626705e-01   2.5072034e-01
  -6.3938966e-01   2.9884265e-01
  -6.6244042e-01   2.6055822e-01
  -6.8693441e-01   2.2796855e-01
  -7.2101058e-01   2.5318315e-01
  -7.0761549e-01   1.8942287e-01
  -7.5689730e-01   1.9311349e-01
  -7.8567369e-01   2.1115773e-01
  -8.0265408e-01   1.7267639e-01
  -8.2848697e-01   1.4061583e-01
  -8.4723943e-01   2.1127632e-01
  -8.8145194e-01   1.7603900e-01
  -8.6245974e-01   2.0316242e-01
  -9.2472025e-01   1.4182786e-01
  -9.3931538e-01   1.4741980e-01
  -9.5727754e-01   2.1464369e-01
  -9.8770763e-01   7.8976559e-02
  -1.0243824e+00   2.6604592e-02
  -1.0495459e+00   9.5190523e-02
  -1.0618717e+00   1.3411514e-01
  -1.0787115e+00  -2.7166645e-02
  -1.1226086e+00  -1.2757870e-02
  -1.1244398e+00   2.4719297e-02
  -1.1487020e+00  -3.7523823e-03
  -1.1800169e+00   3.0365104e-02
  -1.2003178e+00  -3.3907812e-02
  -1.2309581e+00  -1.3397476e-01
  -1.2735830e+00  -1.4494553e-01
  -1.2922779e+00  -1.4351671e-01
  -1.3270160e+00  -1.3983117e-02
  -1.3589977e+00  -1.6063060e-01
  -1.3831401e+00  -2.3886311e-01
  -1.4125272e+00  -1.2012444e-01
  -1.4391608e+00  -1.4776717e-01
  -1.4866411e+00  -2.0913302e-01
  -1.5077933e+00  -2.3147843e-01
  -1.5762912e+00  -1.6322828e-01
  -1.5805469e+00  -2.4944371e-01
  -1.6237489e+00  -2.9162515e-01
  -1.6765319e+00  -2.3614299e-01
  -1.7069371e+00  -3.1227349e-01
  -1.7747805e+00  -2.6948767e-01
  -1.8249467e+00  -2.8186373e-01
  -1.8561446e+00  -2.3743402e-01
  -1.9313197e+00  -3.2332738e-01
  -1.9656317e+00  -2.8890720e-01
  -2.0378866e+00  -3.7660967e-01
  -2.0782596e+00  -4.0609843e-01
  -2.1432304e+00  -3.5525553e-01
  -2.2148408e+00  -3.3310611e-01
  -2.2685933e+00  -4.1453463e-01
  -2.2953414e+00  -4.5084211e-01
  -2.3833391e+00  -3.8998594e-01
  -2.4578281e+00  -5.6231128e-01
  -2.4798988e+00  -5.6050842e-01
  -2.5641655e+00  -5.5603585e-01
  -2.6062234e+00  -6.1262757e-01
  -2.6668629e+00  -6.6807436e-01
  -2.7217399e+00  -6.4613688e-01
  -2.7449034e+00  -7.6693855e-01
  -2.7928393e+00  -8.4460645e-01
  -2.8445108e+00  -9.1984216e-01
  -2.8635647e+00  -9.4253483e-01
  -2.8930531e+00  -9.6397065e-01
  -2.9139063e+00  -1.0704837e+00
  -2.9151588e+00  -1.0702407e+00
  -2.9287082e+00  -1.1184176e+00
  -2.9363083e+00  -1.1795645e+00
  -2.9540711e+00  -1.2671204e+00
  -2.9328509e+00  -1.2800512e+00
  -2.9146452e+00  -1.3209427e+00
  -2.8772262e+00  -1.3457478e+00
  -2.8853064e+00  -1.3623514e+00
  -2.8200215e+00  -1.5329749e+00
  -2.7780121e+00  -1.4789248e+00
  -2.7107702e+00  -1.5382198e+00
  -2.6951471e+00  -1.4964242e+00
  -2.6127189e+00  -1.6115446e+00
  -2.5656910e+00  -1.6201028e+00
  -2.4700911e+00  -1.5527680e+00
  -2.4133383e+00  -1.5302964e+00
  -2.3240586e+00  -1.5895100e+00
  -2.2576318e+00  -1.7033868e+00
  -2.1526311e+00  -1.6729608e+00
  -2.0824899e+00  -1.5378669e+00
  -1.9727504e+00  -1.5371788e+00
  -1.8974428e+00  -1.4724529e+00
  -1.7651239e+00  -1.4523987e+00
  -1.6985546e+00  -1.4711158e+00
  -1.6123857e+00  -1.3664652e+00
  -1.5079184e+00  -1.2936605e+00
  -1.4314817e+00  -1.2026176e+00
  -1.3319085e+00  -1.1778326e+00
  -1.2367169e+00  -1.0213823e+00
  -1.1605209e+00  -9.7348711e-01
  -1.0614230e+00  -1.0007243e+00
  -9.9298489e-01  -9.5211500e-01
  -9.0122352e-01  -8.0398149e-01
  -8.1622566e-01  -7.6072938e-01
  -7.5625238e-01  -6.5017460e-01
  -6.8328948e-01  -5.3810616e-01
  -6.2190583e-01  -3.8716951e-01
  -5.5399781e-01  -4.3823700e-01
  -4.9344129e-01  -4.0055534e-01
  -4.3659593e-01  -3.4898569e-01
  -3.8778990e-01  -1.9098665e-01
  -3.2851123e-01  -1.4886728e-01
  -2.8718629e-01  -1.2609183e-01
  -2.3520230e-01  -4.2838189e-02
  -2.2232007e-01  -8.8364591e-02
  -1.7525729e-01   8.0395323e-02
  -1.3682118e-01   1.5248163e-01
  -9.8490068e-02   1.8353957e-01
  -6.4042747e-02   1.5035842e-01
  -4.4875223e-02   2.3858403e-01
  -2.2348785e-03   2.5621284e-01
   2.3593142e-02   3.6189343e-01
   2.3101218e-02   3.6735357e-01
   5.4130298e-02   3.6799952e-01
   1.0194718e-01   3.4683341e-01
   1.0677232e-01   3.7209852e-01
   1.1541595e-01   4.5352015e-01
   1.3612556e-01   4.3935503e-01
   1.3422169e-01   4.3660896e-01
   1.7069316e-01   5.2972128e-01
   1.9359166e-01   4.9221873e-01
   1.9564705e-01   4.3537067e-01
   1.9474174e-01   5.4766608e-01
   2.0201924e-01   4.8078635e-01
   2.2281676e-01   4.4860275e-01
   2.4587748e-01   6.2028632e-01
   2.4421408e-01   4.8276317e-01
   2.5184590e-01   5.6013711e-01
   2.6598413e-01   5.5154292e-01
   2.7266140e-01   5.1457552e-01
   2.8411569e-01   5.8806992e-01
   2.8565513e-01   5.2582830e-01
   3.0582979e-01   6.7176562e-01
   2.8949984e-01   5.5689327e-01
   3.3051521e-01   5.2155678e-01
   3.3271962e-01   5.7305931e-01
   3.4945781e-01   6.7603489e-01
   3.2449879e-01   6.0669044e-01
   3.2480467e-01   6.0030624e-01
   3.4776129e-01   6.6347911e-01
   3.4074323e-01   6.2478527e-01
   3.5827293e-01   6.6747154e-01
   3.5395625e-01   5.4437940e-01
   3.6868219e-01   5.3343295e-01
   3.7125019e-01   6.9374976e-01
   3.6696212e-01   6.2978299e-01
   3.6056767e-01   6.2878408e-01
   3.9858779e-01   5.4234939e-01
   3.8187627e-01   6.3416441e-01
   3.7997712e-01   6.5499159e-01
   3.9402824e-01   6.2743674e-01
   3.9805332e-01   5.4123077e-01
   4.1943963e-01   5.3692784e-01
   4.1899426e-01   6.5376180e-01
   4.1942080e-01   5.7873000e-01
   4.1825794e-01   6.4493293e-01
   4.1132562e-01   5.3578913e-01
   4.2830318e-01   6.1225292e-01
   4.2869116e-01   5.8408407e-01
   4.5151702e-01   6.1080741e-01
   4.1870030e-01   6.8991681e-01
   4.4405085e-01   6.6335804e-01
   4.2572667e-01   6.4130364e-01
   4.4737723e-01   6.5168748e-01
   4.3862655e-01   6.1532190e-01
   4.3372749e-01   3.9560901e-01
   4.2861846e-01   6.6219769e-01
   4.4247872e-01   6.5767095e-01
   4.3614558e-01   6.5613097e-01
   4.4228691e-01   6.4398584e-01
   4.4964143e-01   6.0723512e-01
   4.4976873e-01   6.2084754e-01
   4.5898064e-01   7.0039228e-01
   4.6423869e-01   6.1743435e-01
   4.7677481e-01   6.7505651e-01
   4.6684348e-01   5.8142754e-01
   4.6114366e-01   5.3561347e-01
   4.8076634e-01   6.2934307e-01
   4.7517315e-01   5.7268074e-01
   4.8442734e-01   7.0933141e-01
   4.7521705e-01   6.2068744e-01
   4.6177182e-01   5.4575613e-01
   4.7205195e-01   5.7449633e-01
   4.7306682e-01   6.1015587e-01
   4.9004005e-01   7.2423704e-01
   4.8882087e-01   6.7938534e-01
   4.9570997e-01   6.6463441e-01
   4.9511791e-01   7.4631925e-01
   4.9838493e-01   7.4122781e-01
   4.7936661e-01   7.4396019e-01
   4.8821069e-01   7.2160035e-01
   4.9375891e-01   6.9003507e-01
   4.9665359e-01   6.0002894e-01
   4.8974009e-01   7.1870435e-01
   5.0978456e-01   6.3148987e-01
   4.8462980e-01   6.3230577e-01
   4.8770975e-01   6.7952167e-01
   5.2308701e-01   6.7447346e-01
   5.0575801e-01   6.6314042e-01
   5.0578508e-01   6.9875224e-01
   5.0799458e-01   7.0712033e-01
   4.9386891e-01   7.2751729e-01
   5.1985631e-01   7.9449922e-01
   4.8953911e-01   6.8702415e-01
   4.9985263e-01   6.1875393e-01
   5.0761278e-01   6.7778939e-01
   5.3044098e-01   6.6890425e-01
   5.1467109e-01   7.4412868e-01
   5.0844455e-01   5.7256744e-01
   5.2136788e-01   4.3692454e-01
   5.0213196e-01   3.4415807e-01
   5.1669041e-01   4.3375769e-01
   4.9635596e-01   6.6414842e-01
   5.3498545e-01   7.8370219e-01
   5.5122094e-01   8.5602215e-01
   5.4377060e-01   1.1871883e+00
   5.2356139e-01   1.2984501e+00
   5.2676042e-01   1.0605182e+00
   5.2754791e-01   8.1962287e-01
   5.1607643e-01   7.4460169e-01
   5.2563183e-01   6.4121064e-01
   5.4284549e-01   6.6500740e-01
   5.0875404e-01   6.4477095e-01
   5.4080980e-01   7.4340644e-01
   5.2555027e-01   6.0822181e-01
   5.1456957e-01   8.5596260e-01
   5.3192628e-01   6.2011683e-01
   5.2566987e-01   7.0366406e-01
   5.3253372e-01   7.0593117e-01
   5.1361201e-01   7.4704705e-01
   4.8768951e-01   6.8913090e-01
   5.0718458e-01   7.2744739e-01
   5.1496829e-01   6.0808770e-01
   5.1406851e-01   6.8407749e-01
   5.3463032e-01   5.5788997e-01
   5.4352035e-01   5.4814298e-01
   5.0416191e-01   6.5516672e-01
   5.0484039e-01   6.6763493e-01
   5.0483404e-01   6.7580003e-01
   5.3575700e-01   7.6255239e-01
   5.1576713e-01   7.4467785e-01
   5.1395606e-01   6.9839267e-01
   5.1379654e-01   7.3444392e-01
   5.4918819e-01   6.7808495e-01
   5.1515906e-01   6.5676235e-01
   5.2496909e-01   6.3587588e-01
   5.1705460e-01   7.3033053e-01
   5.2418870e-01   6.7407864e-01
   5.3328251e-01   7.3122268e-01
   5.1985845e-01   6.4208858e-01
   5.1338137e-01   7.1277711e-01
   5.0793337e-01   6.4694907e-01
   5.4357154e-01   6.9948243e-01
   5.2913927e-01   6.5146397e-01
   5.3097349e-01   6.3842554e-01
   5.2268919e-01   7.0963989e-01
   5.2745767e-01   6.6143880e-01
   5.3907783e-01   6.0000677e-01
   5.2988611e-01   5.9195175e-01
   5.2678692e-01   6.7666783e-01
   5.4026802e-01   6.8681300e-01
   5.3660414e-01   6.1481133e-01
   5.1806252e-01   7.3868492e-01
   5.2598193e-01   6.6847320e-01
   5.1170499e-01   7.3949955e-01
   5.2315547e-01   6.7320815e-01
   5.3188029e-01   7.0849874e-01
   5.1793336e-01   6.2159615e-01
   5.2619885e-01   7.1069235e-01
   5.3389993e-01   6.5483587e-01
   5.2403650e-01   7.1237975e-01
   5.1903909e-01   7.8784648e-01
   5.3288035e-01   7.2449356e-01
   5.1140795e-01   6.6305972e-01
   5.2900830e-01   6.7705077e-01
   5.4268837e-01   7.2084055e-01
   5.2862702e-01   7.3602880e-01
   5.2016542e-01   7.3365581e-01
   5.2738706e-01   6.9241809e-01
   5.1668381e-01   6.1412123e-01
   5.2999336e-01   7.3232454e-01
   5.1647523e-01   7.2738643e-01
   5.1500982e-01   7.2516695e-01
   5.1462134e-01   6.7933565e-01
   5.2261847e-01   6.5377218e-01
   5.1709826e-01   6.6148337e-01
   5.1273894e-01   7.1025976e-01
   5.2247100e-01   7.0405328e-01
   5.1295831e-01   6.2372535e-01
   5.1480196e-01   7.2942768e-01
   5.1640829e-01   7.5572357e-01
   5.1784499e-01   6.5972975e-01
   5.0573923e-01   6.5764890e-01
   5.3169366e-01   7.1984009e-01
   5.3002801e-01   7.2300889e-01
   5.2616425e-01   6.8008841e-01
   5.0416419e-01   6.7255911e-01
   5.3063745e-01   5.9066937e-01
   5.1632092e-01   6.7904374e-01
   5.1146664e-01   6.6581907e-01
   5.3496949e-01   6.8695948e-01
   5.3215357e-01   7.1677086e-01
   5.2206718e-01   7.6985849e-01
   4.9746831e-01   7.1542865e-01
   5.3213942e-01   6.9499319e-01
   5.1434903e-01   7.5475494e-01
   5.0994268e-01   7.3678813e-01
   5.0997854e-01   6.8049896e-01
   5.1807802e-01   7.4920188e-01
   5.2287383e-01   7.7400752e-01
   5.2267319e-01   7.0250996e-01
   5.2591073e-01   7.6612938e-01
   5.2566604e-01   7.0918643e-01
   5.0988318e-01   7.0189350e-01
   5.1339252e-01   7.0461479e-01
   5.1269224e-01   6.8933791e-01
   4.9816102e-01   8.2414671e-01
   5.1970501e-01   8.4813161e-01
   5.1152967e-01   8.2960874e-01
   5.3376205e-01   8.0463828e-01
   5.0039818e-01   8.0819620e-01
   5.0230108e-01   7.6171892e-01
   5.0483788e-01   8.1946230e-01
   5.0353157e-01   7.1995347e-01
   5.2320789e-01   6.6881414e-01
   5.1756059e-01   7.1969996e-01
   5.1604059e-01   7.6614865e-01
   5.2702652e-01   6.9214111e-01
   5.2060924e-01   8.3730031e-01
   5.0587755e-01   7.5347284e-01
   5.3226931e-01   7.2568322e-01
   5.2284598e-01   8.2717875e-01
   5.2284341e-01   7.6559602e-01
   5.2395371e-01   8.4360228e-01
   5.3279824e-01   8.4214049e-01
   5.1100592e-01   7.7596483e-01
   5.2080715e-01   7.6520458e-01
   4.9260312e-01   8.0620174e-01
   5.3705402e-01   8.1197130e-01
   5.1573670e-01   8.5278227e-01
   5.0193312e-01   7.8348440e-01
   5.1026265e-01   8.1872348e-01
   5.1748148e-01   7.9843622e-01
   5.1121313e-01   7.0315806e-01
   5.1994851e-01   7.8234397e-01
   5.0437939e-01   8.0114793e-01
   5.3645848e-01   8.2410698e-01
   5.0379861e-01   8.0491687e-01
   5.1220297e-01   8.2837085e-01
   5.2186428e-01   8.6876955e-01
   5.1591060e-01   8.0384920e-01
   5.1305067e-01   7.2330326e-01
   4.9774133e-01   8.4100458e-01
   5.1065825e-01   8.2157356e-01
   5.1449523e-01   8.6932839e-01
   5.0443050e-01   8.0002078e-01
   5.1552639e-01   8.0262992e-01
   5.2613292e-01   7.5683163e-01
   5.2753149e-01   7.7025643e-01
   5.2364245e-01   8.3999047e-01
   5.1181116e-01   8.4895226e-01
   5.1641568e-01   9.0516687e-01
   5.1883097e-01   8.3341436e-01
   5.1419976e-01   7.6532201e-01
   4.9279931e-01   7.4365250e-01
   5.2948635e-01   7.1739714e-01
   5.0582755e-01   6.9389172e-01
   5.1151228e-01   8.2194503e-01
   5.3763871e-01   8.0676423e-01
   5.1185724e-01   7.0358052e-01
   5.2802208e-01   7.3669251e-01
   5.0444137e-01   9.4266976e-01
   5.1453476e-01   7.6498842e-01
   4.9826132e-01   7.4296170e-01
   4.9734895e-01   7.2334643e-01
   5.0405240e-01   7.2772267e-01
   4.8005016e-01   7.8541096e-01
   4.7788632e-01   5.9990113e-01
   4.5504275e-01   7.2684087e-01
   4.4501820e-01   7.4500234e-01
   4.1639813e-01   7.7816965e-01
   4.0572864e-01   7.9721361e-01
   3.6742656e-01   6.4520035e-01
   3.0648797e-01   7.4498408e-01
   2.3605892e-01   6.8455414e-01
   1.7497822e-01   7.8163515e-01
   1.0167159e-01   7.3851236e-01
   5.5237427e-02   7.2862063e-01
   3.7444617e-02   7.1555013e-01
   3.1571584e-02   6.8469795e-01
   4.4138680e-02   8.0999167e-01
   3.8077917e-02   7.4933644e-01
   7.6197849e-04   7.5482646e-01
  -1.5158961e-02   6.6994109e-01
  -6.4487918e-02   7.1024516e-01
  -9.0367793e-02   6.7520962e-01
  -1.2178933e-01   5.8685806e-01
  -1.5872888e-01   6.0722551e-01
  -1.6489706e-01   5.4525550e-01
  -2.2048865e-01   6.4460378e-01
  -2.0854910e-01   5.8792366e-01
  -2.3437249e-01   5.9408190e-01
  -2.3516387e-01   6.1134519e-01
  -2.1905137e-01   5.8149747e-01
  -2.1256146e-01   5.4782645e-01
  -1.6966304e-01   5.3348734e-01
  -1.5358856e-01   4.8015404e-01
  -1.2680242e-01   4.9354574e-01
  -8.6439021e-02   4.2897884e-01
  -2.9382874e-02   4.6490720e-01
   1.7246913e-02   4.3994164e-01
   4.9561826e-02   3.4911150e-01
   7.6069405e-02   4.8134612e-01
   1.3313024e-01   4.5651316e-01
   1.9063254e-01   4.8109844e-01
   2.1073004e-01   5.6794516e-01
   2.3888871e-01   5.8622147e-01
   2.6062896e-01   4.6940858e-01
   2.7784743e-01   6.2699594e-01
   2.7564218e-01   5.4790157e-01
   2.7245614e-01   4.7017819e-01
   2.7516576e-01   5.5853829e-01
   3.0395875e-01   6.2971047e-01
   3.4413312e-01   6.3386790e-01
   3.8153860e-01   4.7746494e-01
   4.1362467e-01   7.3410256e-01
   4.6841698e-01   7.1400408e-01
   5.1514746e-01   7.6059887e-01
   5.6797201e-01   7.8525564e-01
   5.7967578e-01   6.2008577e-01
   5.9028657e-01   7.7637141e-01
   6.1474546e-01   7.3167229e-01
   6.2757865e-01   8.4689709e-01
   6.3648614e-01   6.5818573e-01
   6.3522981e-01   6.5868204e-01
   6.3199675e-01   5.4989685e-01
   6.4830475e-01   4.9686014e-01
   6.5397648e-01   5.3295286e-01
   6.3261285e-01   3.8272086e-01
   6.5744144e-01   6.3374735e-01
   6.5060714e-01   7.5565118e-01
   6.6213568e-01   9.8281977e-01
   6.8289870e-01   1.1905570e+00
   6.4084225e-01   1.2576214e+00
   6.5104857e-01   1.1543821e+00
   6.3021263e-01   8.8949674e-01
   6.4638184e-01   7.8077620e-01
   6.6279656e-01   7.5408939e-01
   6.4054062e-01   7.6797768e-01
   6.2242452e-01   8.1483123e-01
   6.0802607e-01   6.8066908e-01
   6.2756089e-01   7.4939272e-01
   6.1565874e-01   6.7767451e-01
   6.1145674e-01   7.7128087e-01
   6.1411709e-01   7.1923317e-01
   6.0387801e-01   7.4382829e-01
   6.0264270e-01   7.0278567e-01
   5.8114698e-01   7.2557638e-01
   5.7344287e-01   8.0165202e-01
   5.6216334e-01   8.9620354e-01
   5.1549223e-01   8.1088935e-01
   4.5916944e-01   9.0873023e-01
   3.4752184e-01   9.8453435e-01
   2.3016715e-01   1.2022503e+00
   3.3842699e-02   1.2428979e+00
  -2.5977030e-01   1.2807183e+00
  -5.6709701e-01   1.3410553e+00
  -9.2492705e-01   1.4410817e+00
  -1.3036402e+00   1.4821437e+00
  -1.5608338e+00   1.3854221e+00
  -1.7541312e+00   1.1807247e+00
  -1.8336669e+00   9.7144566e-01
  -1.7483250e+00   5.4511441e-01
  -1.5263315e+00  -8.6993219e-02
  -1.2261891e+00  -7.9010347e-01
  -9.1083344e-01  -1.6320309e+00
  -5.4754313e-01  -2.2852954e+00
  -2.7738180e-01  -2.9794397e+00
  -3.3838454e-02  -3.3444892e+00
   1.2758164e-01  -3.6740875e+00
   2.7730050e-01  -4.0946858e+00
   3.8155948e-01  -4.2651198e+00
   4.8707188e-01  -4.5968119e+00
   6.0701991e-01  -5.0451416e+00
   7.6570194e-01  -5.1185227e+00
   9.8598247e-01  -5.0054362e+00
   1.2375249e+00  -4.8704795e+00
   1.5410638e+00  -4.4977430e+00
   1.8824121e+00  -4.1958761e+00
   2.2405662e+00  -3.8306949e+00
   2.5673297e+00  -3.4530302e+00
   2.7774606e+00  -2.4850693e+00
   2.9193760e+00  -1.6285712e+00
   2.9004995e+00  -9.6862850e-01
   2.7384555e+00  -1.9757569e-01
   2.4964460e+00   2.4176709e-01
   2.1625586e+00   3.8659601e-01
   1.7941202e+00   4.3725642e-01
   1.4449803e+00   5.7479579e-01
   1.0908610e+00   5.8171992e-01
   7.9290565e-01   5.0566241e-01
   5.7021729e-01   5.1929598e-01
   4.2433665e-01   3.7881290e-01
   2.8178344e-01   4.8417740e-01
   2.0648289e-01   4.8542974e-01
   1.6528583e-01   4.3005740e-01
   1.2815610e-01   5.8663223e-01
   1.0424463e-01   5.7515651e-01
   7.5469545e-02   6.2422212e-01
   6.3188329e-02   5.4208718e-01
   4.3437847e-02   6.2101935e-01
   3.1452674e-02   7.0621904e-01
   1.4020367e-02   6.3779867e-01
   2.2273942e-02   5.3551521e-01
  -7.9615855e-03   6.9719305e-01
  -4.4253148e-02   7.1120052e-01
  -3.9868788e-02   7.3749206e-01
  -5.2793898e-02   6.6891835e-01
  -6.9415097e-02   6.2932608e-01
  -9.8293425e-02   5.4433294e-01
  -8.2137503e-02   7.0285210e-01
  -1.3370259e-01   6.8499856e-01
  -1.1955782e-01   6.0308830e-01
  -1.5865142e-01   7.1641830e-01
  -1.6414612e-01   6.4578247e-01
  -1.8827914e-01   7.2929117e-01
  -1.8240220e-01   6.8740257e-01
  -2.1863502e-01   6.7990767e-01
  -2.2031253e-01   6.5745162e-01
  -2.4410425e-01   6.1446924e-01
  -2.6557497e-01   5.4284256e-01
  -2.8610373e-01   6.8940919e-01
  -3.0064781e-01   6.7934320e-01
  -3.1044168e-01   6.2152884e-01
  -3.2507768e-01   6.3551671e-01
  -3.5021644e-01   6.2120894e-01
  -3.8189920e-01   5.5254149e-01
  -3.8912705e-01   6.5075006e-01
  -4.0681184e-01   5.6086385e-01
  -4.2749352e-01   6.4093827e-01
  -4.5195825e-01   6.7638831e-01
  -4.7244295e-01   6.4883796e-01
  -5.0150882e-01   5.9765750e-01
  -5.3929318e-01   5.1481336e-01
  -5.4582297e-01   6.2058248e-01
  -5.6246820e-01   6.3007399e-01
  -5.6901202e-01   5.7572524e-01
  -6.1723274e-01   5.6974075e-01
  -6.3511400e-01   5.3385481e-01
  -6.3583912e-01   5.2143390e-01
  -6.7507169e-01   5.7119884e-01
  -7.0127556e-01   5.5819188e-01
  -7.0191445e-01   5.4954864e-01
  -7.6158392e-01   6.4438776e-01
  -7.7906957e-01   5.3495053e-01
  -7.9707124e-01   5.5424547e-01
  -8.1718136e-01   4.8747643e-01
  -8.3722295e-01   4.9929292e-01
  -8.4968934e-01   5.6490139e-01
  -8.9071436e-01   3.7448471e-01
  -9.2885815e-01   5.0033595e-01
  -9.3164194e-01   4.2363961e-01
  -9.3980183e-01   4.1534932e-01
  -9.7356639e-01   4.3874232e-01
  -9.9494488e-01   5.3589842e-01
  -1.0329437e+00   3.8976132e-01
  -1.0360477e+00   3.4469131e-01
  -1.0752464e+00   4.2906210e-01
  -1.1032594e+00   4.2235569e-01
  -1.1000985e+00   3.8698835e-01
  -1.1436582e+00   2.8948567e-01
  -1.1812025e+00   3.8414502e-01
  -1.1871557e+00   2.4327087e-01
  -1.2314695e+00   3.0386943e-01
  -1.2424207e+00   3.3302391e-01
  -1.2582732e+00   2.7087407e-01
  -1.2835238e+00   3.0511552e-01
  -1.3157685e+00   1.5651767e-01
  -1.3559815e+00   2.6543806e-01
  -1.3568168e+00   1.8194849e-01
  -1.3934251e+00   1.4828962e-01
  -1.4465123e+00   2.2817840e-01
  -1.4572359e+00   2.0962435e-01
  -1.5046169e+00   1.4233284e-01
  -1.5368980e+00   1.4355568e-01
  -1.5538106e+00   1.3776493e-01
  -1.5838200e+00   8.9634666e-02
  -1.6472076e+00   5.1023530e-02
  -1.6818722e+00   5.4754793e-02
  -1.7233774e+00   8.4576962e-03
  -1.7714201e+00  -1.1157072e-01
  -1.8284603e+00   9.3108098e-03
  -1.8471979e+00  -1.9965101e-02
  -1.9100263e+00  -1.2207562e-03
  -1.9716076e+00  -2.1258241e-02
  -2.0018279e+00  -8.2068940e-02
  -2.0772830e+00  -2.3033406e-01
  -2.1284925e+00  -1.3581674e-01
  -2.1825826e+00  -1.0306348e-01
  -2.2543314e+00  -2.2854349e-01
  -2.3108202e+00  -1.4860251e-01
  -2.3416765e+00  -2.9081957e-01
  -2.4306524e+00  -3.3427795e-01
  -2.4781809e+00  -3.2558151e-01
  -2.5210558e+00  -4.6942345e-01
  -2.5989265e+00  -3.2374151e-01
  -2.6252019e+00  -4.3896156e-01
  -2.7040430e+00  -5.1970336e-01
  -2.7489562e+00  -4.4931246e-01
  -2.7924523e+00  -4.8664950e-01
  -2.8352614e+00  -6.6061262e-01
  -2.8845064e+00  -7.4967771e-01
  -2.9298174e+00  -7.7817134e-01
  -2.9386937e+00  -8.1347448e-01
  -2.9636941e+00  -8.7355379e-01
  -2.9982104e+00  -8.8058075e-01
  -2.9984898e+00  -9.2347336e-01
  -3.0129986e+00  -1.0192664e+00
  -3.0016952e+00  -1.1254342e+00
  -2.9985021e+00  -1.0210722e+00
  -3.0113404e+00  -1.0611351e+00
  -2.9744475e+00  -1.1603657e+00
  -2.9454054e+00  -1.1953335e+00
  -2.9205879e+00  -1.1964562e+00
  -2.8789609e+00  -1.3009926e+00
  -2.8491897e+00  -1.2656890e+00
  -2.7827934e+00  -1.3002960e+00
  -2.7202777e+00  -1.4585195e+00
  -2.6813276e+00  -1.3577236e+00
  -2.5924474e+00  -1.4388630e+00
  -2.5197967e+00  -1.3669806e+00
  -2.4572456e+00  -1.3683562e+00
  -2.3705662e+00  -1.2806485e+00
  -2.2920256e+00  -1.3799794e+00
  -2.1813005e+00  -1.4185097e+00
  -2.0850009e+00  -1.3251869e+00
  -2.0164730e+00  -1.3114871e+00
  -1.9181139e+00  -1.2304058e+00
  -1.8240856e+00  -1.1383906e+00
  -1.7298324e+00  -1.2300296e+00
  -1.6280428e+00  -1.0333560e+00
  -1.5545412e+00  -9.7285452e-01
  -1.4406748e+00  -9.4903750e-01
  -1.3496882e+00  -7.9472960e-01
  -1.2770906e+00  -7.4381279e-01
  -1.1877052e+00  -6.4412333e-01
  -1.1122888e+00  -7.7457364e-01
  -1.0348293e+00  -6.5165783e-01
  -9.4320456e-01  -4.4987533e-01
  -8.7450128e-01  -4.6014055e-01
  -8.0831618e-01  -2.9827898e-01
  -7.1663807e-01  -3.8024121e-01
  -6.6073445e-01  -2.1707299e-01
  -6.1349273e-01  -2.5540153e-01
  -5.4141113e-01  -1.0416697e-01
  -4.9159608e-01  -8.0042877e-02
  -4.3162712e-01   4.2202574e-02
  -3.9672393e-01  -1.1064609e-02
  -3.3648185e-01   1.7238716e-01
  -3.0915879e-01   1.5752068e-01
  -2.6769979e-01   2.8472028e-01
  -2.0777014e-01   3.4110422e-01
  -1.8697309e-01   2.5848280e-01
  -1.6017689e-01   7.5223822e-02
  -1.3850796e-01   1.6418881e-01
  -9.5149121e-02   1.9793191e-01
  -5.9743747e-02   3.2238496e-01
  -2.5487210e-02   6.1652785e-01
  -7.1549791e-03   6.2197527e-01
   3.4963788e-02   8.9442474e-01
   2.2752933e-02   1.2696727e+00
   5.5545991e-02   1.1536290e+00
   7.6852849e-02   9.1820196e-01
   8.6853354e-02   8.5505643e-01
   1.0167797e-01   7.8328297e-01
   9.9225413e-02   7.6120091e-01
   1.0849222e-01   7.3026330e-01
   1.4473068e-01   6.4245247e-01
   1.2891527e-01   7.6440545e-01
   1.5534871e-01   6.2643342e-01
   1.7100254e-01   8.7386227e-01
   2.0055814e-01   7.0633189e-01
   1.6998718e-01   8.4470648e-01
   2.1677932e-01   8.3375265e-01
   2.1133845e-01   8.7746813e-01
   2.2344526e-01   7.5797637e-01
   2.1852394e-01   9.0460303e-01
   2.2631805e-01   7.9033325e-01
   2.4965241e-01   8.7028510e-01
   2.4836235e-01   8.1903141e-01
   2.5599613e-01   8.6858128e-01
   2.6616172e-01   8.4086654e-01
   2.6603903e-01   9.3855543e-01
   2.7767293e-01   9.1201480e-01
   2.7296049e-01   8.4152116e-01
   2.7049852e-01   8.4598441e-01
   2.9782446e-01   9.0734802e-01
   2.9687485e-01   9.3652271e-01
   3.0645721e-01   8.7083749e-01
   2.8958753e-01   8.6034218e-01
   3.1878520e-01   7.9718456e-01
   3.1309882e-01   9.1755518e-01
   3.2800715e-01   7.6280085e-01
   3.4652842e-01   8.5292496e-01
   3.4664725e-01   8.3976734e-01
   3.2840580e-01   8.1386886e-01
   3.4151002e-01   8.0832720e-01
   3.5376653e-01   1.0019538e+00
   3.4604790e-01   8.6143684e-01
   3.5154184e-01   7.3291071e-01
   3.5937315e-01   7.9808492e-01
   3.5482869e-01   7.6907812e-01
   3.6920092e-01   8.7914152e-01
   3.7294967e-01   8.7234203e-01
   3.5236293e-01   7.9936304e-01
   3.9445951e-01   8.6228379e-01
   3.8392188e-01   7.9576567e-01
   3.8447678e-01   9.4475731e-01
   3.7650289e-01   7.1683537e-01
   3.9663287e-01   8.7214858e-01
   3.6848394e-01   8.4815355e-01
   4.0900652e-01   9.7024057e-01
   4.0885897e-01   9.6421856e-01
   4.0424448e-01   8.7788517e-01
   4.0812081e-01   8.6764587e-01
   3.9151406e-01   9.6668139e-01
   3.8983364e-01   9.2737351e-01
   4.1020412e-01   1.0459208e+00
   4.0859311e-01   8.8321821e-01
   4.1272043e-01   9.6069397e-01
   4.1129661e-01   9.8347785e-01
   4.2430308e-01   9.1613674e-01
   4.1995491e-01   1.0066599e+00
   4.0738416e-01   9.2893211e-01
   4.3036502e-01   9.2134920e-01
   4.1252551e-01   9.9107718e-01
   4.2296998e-01   9.8004814e-01
   4.1947864e-01   9.0575032e-01
   4.2191333e-01   9.3610978e-01
   4.2834961e-01   9.8225091e-01
   4.3916741e-01   1.0391441e+00
   4.2653509e-01   8.9166458e-01
   4.2024380e-01   9.5906001e-01
   4.4036280e-01   9.8904275e-01
   4.5310094e-01   9.4165377e-01
   4.3765354e-01   8.8457414e-01
   4.3534878e-01   9.7845470e-01
   4.2623226e-01   9.2244743e-01
   4.4101995e-01   9.0623123e-01
   4.5844916e-01   8.6046556e-01
   4.4852368e-01   9.3090091e-01
   4.2474159e-01   9.7706624e-01
   4.4230380e-01   9.8152278e-01
   4.4441853e-01   9.5105042e-01
   4.3604201e-01   1.0541725e+00
   4.4186374e-01   9.4355350e-01
   4.4899287e-01   9.4002412e-01
   4.5046127e-01   7.9164291e-01
   4.5203398e-01   1.0301354e+00
   4.3905652e-01   8.7271053e-01
   4.6062721e-01   9.4146853e-01
   4.5363580e-01   9.5600667e-01
   4.5090996e-01   8.5822849e-01
   4.5794643e-01   8.7948447e-01
   4.3533830e-01   1.0216025e+00
   4.3545487e-01   9.1717780e-01
   4.6477618e-01   9.7909835e-01
   4.5438643e-01   9.3570326e-01
   4.6590081e-01   1.0014729e+00
   4.5250410e-01   8.8365660e-01
   4.6457157e-01   9.7203790e-01
   4.7244915e-01   9.0425292e-01
   4.4816777e-01   8.9120039e-01
   4.6722586e-01   9.5723943e-01
   4.5292560e-01   9.7504120e-01
   4.4695084e-01   8.3321142e-01
   4.6424390e-01   1.0102298e+00
   4.5618157e-01   8.0307993e-01
   4.7062833e-01   8.8264344e-01
   4.4823648e-01   9.2624329e-01
   4.7146616e-01   1.0005741e+00
   4.5889406e-01   1.0010611e+00
   4.5208902e-01   9.2832524e-01
   4.6186549e-01   9.1485900e-01
   4.6855667e-01   9.0614970e-01
   4.8590440e-01   1.0076641e+00
   4.8577884e-01   9.2202418e-01
   4.7632007e-01   9.2754692e-01
   4.6839040e-01   9.2784149e-01
   4.7132198e-01   9.1474408e-01
   4.7701318e-01   9.3075330e-01
   4.8667329e-01   9.5722147e-01
   4.8128965e-01   8.2920033e-01
   4.7063971e-01   9.6179607e-01
   4.7186646e-01   9.4985667e-01
   4.9669923e-01   9.1837021e-01
   4.7955859e-01   8.8135482e-01
   4.8278552e-01   9.7817751e-01
   4.7169795e-01   9.7999070e-01
   4.7844557e-01   9.3812605e-01
   4.6019586e-01   9.6966653e-01
   4.6047170e-01   1.0602958e+00
   4.6213051e-01   9.5080806e-01
   4.5329935e-01   9.6778142e-01
   4.7447692e-01   9.3223490e-01
   4.7579980e-01   8.6627761e-01
   4.6947070e-01   9.1583607e-01
   4.5911025e-01   9.1653573e-01
   4.7744678e-01   8.6083206e-01
   4.8480323e-01   9.6801970e-01
   4.5314155e-01   9.4950632e-01
   5.0145973e-01   8.9868669e-01
   4.6916361e-01   9.5982799e-01
   4.6538867e-01   9.7705300e-01
   4.6787953e-01   9.4312309e-01
   4.8513907e-01   9.4449416e-01
   4.8712279e-01   8.8079021e-01
   4.7172455e-01   9.3065691e-01
   4.7593509e-01   9.5779961e-01
   4.8642035e-01   9.3300216e-01
   4.7694294e-01   9.2056026e-01
   4.8994086e-01   9.5145349e-01
   4.7701789e-01   9.4916666e-01
   4.7233743e-01   8.7269481e-01
   4.7695167e-01   9.3663321e-01
   4.6806538e-01   9.1645638e-01
   4.9057947e-01   8.7857528e-01
   4.6887363e-01   1.0583964e+00
   4.7906806e-01   8.9335779e-01
   4.7041656e-01   9.6465531e-01
   4.7729527e-01   9.3931496e-01
   4.6284247e-01   9.1550127e-01
   4.7290788e-01   8.9213624e-01
   4.9127037e-01   1.0277050e+00
   4.8145921e-01   8.7150848e-01
   4.8558511e-01   9.5157606e-01
   4.8776599e-01   9.2195372e-01
   4.6859510e-01   8.6671312e-01
   4.6841657e-01   8.9843092e-01
   4.5563012e-01   9.3414049e-01
   4.6626859e-01   9.6917525e-01
   4.7442301e-01   8.4321287e-01
   4.7597906e-01   8.9387305e-01
   4.7311836e-01   9.0612564e-01
   4.6675548e-01   9.1541166e-01
   4.6810705e-01   9.0415472e-01
   4.7513632e-01   8.7277304e-01
   4.9135439e-01   9.3031092e-01
   4.7142173e-01   8.0505281e-01
   4.7097884e-01   9.0376725e-01
   4.6495920e-01   9.4547899e-01
   4.5907127e-01   9.2509761e-01
   4.6861689e-01   9.0620866e-01
   4.5737713e-01   8.6883207e-01
   4.4573964e-01   9.0402474e-01
   4.5423519e-01   9.3468613e-01
   4.6113211e-01   9.3158877e-01
   4.7357681e-01   8.3450878e-01
   4.8391104e-01   8.3656068e-01
   4.9625012e-01   9.8499314e-01
   4.8009806e-01   9.0338370e-01
   4.7722067e-01   9.0313535e-01
   4.8444253e-01   8.2246234e-01
   4.5900649e-01   7.4691840e-01
   4.7385882e-01   8.4643073e-01
   4.5417177e-01   8.9001758e-01
   4.6280620e-01   9.7804098e-01
   4.6445052e-01   1.0810918e+00
   4.8182529e-01   8.3536539e-01
   4.5224125e-01   8.6092217e-01
   4.6986395e-01   9.9901757e-01
   4.6092624e-01   8.1449023e-01
   4.6246080e-01   8.1551212e-01
   4.8249866e-01   8.8739305e-01
   4.7070623e-01   8.7142767e-01
   4.7043349e-01   8.7208682e-01
   4.6593574e-01   8.1011397e-01
   4.8382576e-01   7.9776611e-01
   4.6969419e-01   8.5996753e-01
   4.5894025e-01   8.3666607e-01
   4.6579136e-01   8.2656896e-01
   4.6568108e-01   8.1311499e-01
   4.6661041e-01   9.4950051e-01
   4.6396390e-01   8.8921073e-01
   4.5331690e-01   8.1306359e-01
   4.5308695e-01   8.8972029e-01
   4.7370191e-01   8.4978071e-01
   4.6988903e-01   8.0271543e-01
   4.8454157e-01   8.6804278e-01
   4.6022378e-01   9.1441565e-01
   4.6984535e-01   6.2637984e-01
   4.5386107e-01   5.1215039e-01
   4.7081987e-01   5.3641206e-01
   4.8274940e-01   6.7395786e-01
   4.7530860e-01   7.3423973e-01
   4.9327136e-01   9.5041991e-01
   4.9542021e-01   1.2230918e+00
   5.0463269e-01   1.4284833e+00
   4.8141864e-01   1.3705473e+00
   4.7771834e-01   1.1373933e+00
   4.8392976e-01   8.9898878e-01
   4.9219152e-01   8.6316625e-01
   4.8357237e-01   7.8348779e-01
   4.5865410e-01   9.1601520e-01
   4.8219456e-01   8.1745087e-01
   4.7470309e-01   8.5840925e-01
   4.8556677e-01   8.7075083e-01
   4.7689291e-01   7.2801820e-01
   4.7527397e-01   9.0033229e-01
   4.6694489e-01   7.8203901e-01
   4.8649875e-01   7.6779893e-01
   4.6593790e-01   7.9949270e-01
   4.8123192e-01   8.2570837e-01
   4.8557104e-01   7.0553012e-01
   4.8104440e-01   9.8240510e-01
   4.9058286e-01   7.0705395e-01
   4.7909250e-01   7.1054819e-01
   4.7254784e-01   6.8862520e-01
   4.6781113e-01   7.3449122e-01
   4.6907952e-01   8.3443730e-01
   4.9507653e-01   7.9277754e-01
   4.8693503e-01   8.1819750e-01
   4.8487602e-01   7.9368453e-01
   4.7144565e-01   7.9497290e-01
   4.6217948e-01   7.9115041e-01
   4.6356101e-01   8.0022507e-01
   4.7384194e-01   7.8126646e-01
   4.6263142e-01   8.4140873e-01
   4.7823987e-01   8.9025203e-01
   4.8301934e-01   7.6905942e-01
   4.6513040e-01   8.5584630e-01
   4.4552366e-01   7.9557824e-01
   4.3617119e-01   7.8702051e-01
   4.4796314e-01   7.7342962e-01
   4.4929140e-01   8.5137133e-01
   4.2142779e-01   8.6130340e-01
   3.9077888e-01   8.0935836e-01
   3.6243954e-01   7.5991841e-01
   3.0027894e-01   7.7518450e-01
   2.4756677e-01   6.7319829e-01
   1.8475049e-01   6.1948046e-01
   1.1497554e-01   7.6364596e-01
   5.9517819e-02   7.2809843e-01
   1.9449987e-02   8.4169147e-01
  -1.3148844e-03   7.6892618e-01
   1.7218839e-02   6.6705497e-01
  -6.3077445e-03   6.4340540e-01
  -2.3914737e-02   6.8586836e-01
  -3.6652223e-02   6.2977133e-01
  -7.0171232e-02   7.7854305e-01
  -1.2036646e-01   6.4900488e-01
  -1.2679510e-01   7.2257305e-01
  -1.7327673e-01   7.2541558e-01
  -1.9309941e-01   7.1316499e-01
  -2.1902479e-01   6.9608378e-01
  -2.4163656e-01   6.1522897e-01
  -2.6680746e-01   5.2234770e-01
  -2.6298232e-01   6.2823702e-01
  -2.6974811e-01   6.0783039e-01
  -2.5111630e-01   6.5627226e-01
  -2.1380230e-01   4.9704209e-01
  -1.9720318e-01   6.7467135e-01
  -1.7355545e-01   5.2067617e-01
  -1.3046446e-01   5.1185971e-01
  -9.6791173e-02   4.6292879e-01
  -4.6212159e-02   3.5762589e-01
  -1.8427736e-02   5.6988662e-01
   3.6454226e-02   4.7475132e-01
   8.4003907e-02   4.4898198e-01
   1.2621796e-01   5.2255327e-01
   1.5859919e-01   4.3179708e-01
   1.9811037e-01   5.3438858e-01
   2.2787749e-01   5.2045308e-01
   2.4915737e-01   4.2914583e-01
   2.4808648e-01   5.2522898e-01
   2.6118201e-01   5.3218462e-01
   2.5133697e-01   6.3001802e-01
   2.5011170e-01   5.8386213e-01
   2.8313146e-01   7.0359604e-01
   3.2766234e-01   7.2737925e-01
   3.8367086e-01   6.4744867e-01
   4.2124541e-01   6.0509386e-01
   4.4733107e-01   6.1412221e-01
   5.0786879e-01   6.6015754e-01
   5.3554151e-01   6.9671053e-01
   5.4355844e-01   6.3294499e-01
   5.6251859e-01   5.6322943e-01
   5.9674658e-01   6.5265056e-01
   5.8668882e-01   6.2442836e-01
   6.1910282e-01   6.0828254e-01
   6.1017833e-01   6.3111457e-01
   6.1457360e-01   6.3610454e-01
   6.2766277e-01   7.3540649e-01
   6.0917876e-01   7.7901736e-01
   6.2060514e-01   7.1844145e-01
   6.2161071e-01   7.5359343e-01
   6.1898372e-01   7.2034793e-01
   6.2054114e-01   6.7573180e-01
   6.2027933e-01   7.9392226e-01
   6.0917323e-01   7.2716077e-01
   6.0590426e-01   8.1965548e-01
   6.1376063e-01   6.8297330e-01
   6.2433653e-01   8.1820046e-01
   5.8930041e-01   8.1589095e-01
   6.0664619e-01   7.4594808e-01
   6.1529572e-01   7.0011991e-01
   5.9989678e-01   6.8096640e-01
   5.9402358e-01   6.6897608e-01
   5.9058155e-01   9.2922726e-01
   5.8225660e-01   8.0026943e-01
   5.6704395e-01   7.3173322e-01
   5.5397832e-01   7.1092758e-01
   5.6166257e-01   8.5270252e-01
   5.3640438e-01   7.5840965e-01
   5.3323835e-01   6.6839514e-01
   5.2009089e-01   9.0156429e-01
   4.5128848e-01   8.2442821e-01
   3.7970090e-01   1.0313889e+00
   2.7931921e-01   1.0338386e+00
   1.1312285e-01   1.1696262e+00
  -1.1900269e-01   1.2443429e+00
  -4.1843366e-01   1.3442841e+00
  -7.3823507e-01   1.3708705e+00
  -1.1132316e+00   1.2628435e+00
  -1.4416787e+00   1.2024387e+00
  -1.6888524e+00   1.2609548e+00
  -1.8349776e+00   1.0686262e+00
  -1.8280049e+00   8.1014874e-01
  -1.6896394e+00   2.5456381e-01
  -1.4200453e+00  -3.6524867e-01
  -1.1023926e+00  -1.1439740e+00
  -7.5553680e-01  -1.8228024e+00
  -4.6211748e-01  -2.5796440e+00
  -1.7579165e-01  -3.1340355e+00
   3.2097342e-02  -3.5416641e+00
   1.9224352e-01  -3.7511916e+00
   3.0551810e-01  -4.1391327e+00
   4.2288026e-01  -4.4685820e+00
   5.1208803e-01  -4.8518628e+00
   6.5541118e-01  -5.0458568e+00
   8.1785777e-01  -5.1433863e+00
   1.0530704e+00  -4.7717213e+00
   1.3314678e+00  -4.6229660e+00
   1.6660930e+00  -4.4256546e+00
   2.0300294e+00  -4.0691796e+00
   2.3616023e+00  -3.6212576e+00
   2.6259744e+00  -2.9336772e+00
   2.8219868e+00  -2.1878181e+00
   2.8874417e+00  -1.2172033e+00
   2.8301319e+00  -5.5175823e-01
   2.6153871e+00  -7.1213153e-02
   2.3119585e+00   2.1339261e-01
   1.9799528e+00   3.8066423e-01
   1.6053380e+00   4.1668910e-01
   1.2442939e+00   5.0604764e-01
   9.2066742e-01   4.6396489e-01
   6.6858063e-01   4.4628567e-01
   4.5466910e-01   4.9221942e-01
   3.2379252e-01   4.4347806e-01
   2.3880829e-01   4.7976223e-01
   1.4162951e-01   3.7520267e-01
   1.3232157e-01   4.5215889e-01
   8.0033170e-02   5.3169001e-01
   8.4162724e-02   5.3734095e-01
   5.9118419e-02   5.8709132e-01
   2.4637435e-02   6.3448578e-01
   3.3532320e-02   7.2620126e-01
  -3.1803347e-03   6.2642132e-01
  -2.8785270e-02   5.5911583e-01
  -1.7839025e-02   7.0647330e-01
  -3.6108232e-02   5.6746943e-01
  -4.0139638e-02   7.3388232e-01
  -7.4739504e-02   6.2023871e-01
  -7.8636102e-02   6.4972768e-01
  -9.1887985e-02   6.5551671e-01
  -1.1197967e-01   6.7552635e-01
  -1.3409032e-01   7.1174065e-01
  -1.3740485e-01   6.9661402e-01
  -1.5615428e-01   6.4608307e-01
  -1.5919938e-01   6.2075619e-01
  -2.0353058e-01   6.1629943e-01
  -2.2390470e-01   5.6204449e-01
  -2.0547932e-01   6.0171452e-01
  -2.3751316e-01   5.3443895e-01
  -2.6402406e-01   5.8653424e-01
  -2.6904193e-01   6.2273361e-01
  -3.0628562e-01   5.9705445e-01
  -3.0707889e-01   5.4257267e-01
  -3.2667114e-01   4.4645412e-01
  -3.5717314e-01   5.1837434e-01
  -3.6123420e-01   5.3582196e-01
  -3.8981164e-01   4.9737610e-01
  -4.0626006e-01   5.4618442e-01
  -4.1146191e-01   5.4094594e-01
  -4.4920836e-01   3.9273104e-01
  -4.7673650e-01   5.0435799e-01
  -4.6157420e-01   4.9266649e-01
  -4.7583698e-01   5.6274230e-01
  -5.0674112e-01   6.9603739e-01
  -5.5346912e-01   6.0563128e-01
  -5.4819042e-01   5.0986833e-01
  -5.8565775e-01   5.1989513e-01
  -6.1161648e-01   4.1970490e-01
  -6.1008818e-01   4.0445174e-01
  -6.4821658e-01   4.9917196e-01
  -6.8775191e-01   4.6300807e-01
  -6.8073373e-01   5.1454380e-01
  -7.2395408e-01   3.8008316e-01
  -7.6280343e-01   4.3804975e-01
  -7.5661955e-01   5.3043088e-01
  -7.8451541e-01   4.8546419e-01
  -8.1879154e-01   3.9069725e-01
  -8.1394323e-01   3.9738211e-01
  -8.4294203e-01   3.8184881e-01
  -8.9596848e-01   4.4046701e-01
  -8.9508109e-01   4.5139536e-01
  -9.1692682e-01   3.4176701e-01
  -9.5179262e-01   2.7610080e-01
  -9.7979307e-01   1.1262426e-01
  -9.9742484e-01   5.8945969e-02
  -1.0216000e+00   1.6941932e-01
  -1.0240622e+00   2.3058638e-01
  -1.0427723e+00   3.0594344e-01
  -1.0470842e+00   5.6041138e-01
  -1.0984902e+00   8.0560247e-01
  -1.1288670e+00   9.3561051e-01
  -1.1440561e+00   7.1136211e-01
  -1.1865306e+00   3.2480329e-01
  -1.2164938e+00   3.4528699e-01
  -1.2405599e+00   1.9347302e-01
  -1.2649014e+00   2.9304593e-01
  -1.2879713e+00   1.5430407e-01
  -1.3254994e+00   3.0035747e-01
  -1.3518958e+00   1.8663284e-01
  -1.3720856e+00   1.4804902e-01
  -1.3848586e+00   1.1747286e-01
  -1.4185810e+00   1.7663244e-01
  -1.4614538e+00   9.9990899e-02
  -1.4853801e+00   8.5775362e-02
  -1.5362213e+00   1.2040214e-02
  -1.5704531e+00   8.8906717e-02
  -1.6133663e+00   2.1664754e-02
  -1.6246429e+00  -1.4473919e-01
  -1.6777981e+00  -1.2043847e-01
  -1.7230816e+00   1.9581435e-02
  -1.7502128e+00  -4.9041200e-02
  -1.7932234e+00  -1.3360574e-01
  -1.8577675e+00   3.5265510e-02
  -1.8910237e+00  -5.4674370e-02
  -1.9406266e+00  -1.9643538e-01
  -1.9973909e+00  -1.9484127e-01
  -2.0305837e+00  -1.2502482e-01
  -2.1023289e+00  -1.9044823e-01
  -2.1733331e+00  -1.3277137e-01
  -2.2103530e+00  -3.5558519e-01
  -2.2698906e+00  -2.1735677e-01
  -2.3449389e+00  -3.1787735e-01
  -2.4168335e+00  -2.8978040e-01
  -2.4448530e+00  -3.4101067e-01
  -2.5247619e+00  -3.8095740e-01
  -2.5696738e+00  -5.0296895e-01
  -2.6253177e+00  -5.6496183e-01
  -2.6797849e+00  -6.0898860e-01
  -2.7470572e+00  -6.3716838e-01
  -2.7973561e+00  -5.3966433e-01
  -2.8200877e+00  -6.4685716e-01
  -2.8621915e+00  -8.0820265e-01
  -2.9054186e+00  -8.0552344e-01
  -2.9561266e+00  -8.7485550e-01
  -2.9742530e+00  -9.6404266e-01
  -2.9868373e+00  -9.6718414e-01
  -3.0039730e+00  -9.8596560e-01
  -2.9902354e+00  -9.7174523e-01
  -3.0161171e+00  -1.1064711e+00
  -3.0324997e+00  -1.0586728e+00
  -3.0095027e+00  -1.1130498e+00
  -2.9956333e+00  -1.2191917e+00
  -2.9836707e+00  -1.2572348e+00
  -2.9553490e+00  -1.2478328e+00
  -2.9252817e+00  -1.2981711e+00
  -2.8658389e+00  -1.3598859e+00
  -2.8227266e+00  -1.4605911e+00
  -2.7738429e+00  -1.4785949e+00
  -2.7096967e+00  -1.4319123e+00
  -2.6524348e+00  -1.4192673e+00
  -2.5829579e+00  -1.4328623e+00
  -2.4871191e+00  -1.4979634e+00
  -2.4270697e+00  -1.4249309e+00
  -2.3547108e+00  -1.5059238e+00
  -2.2463638e+00  -1.4755830e+00
  -2.1689769e+00  -1.4699902e+00
  -2.0740308e+00  -1.3874449e+00
  -1.9800911e+00  -1.3329399e+00
  -1.8808416e+00  -1.3911404e+00
  -1.7774749e+00  -1.2736412e+00
  -1.7072248e+00  -1.1514073e+00
  -1.6071698e+00  -1.1693031e+00
  -1.5074688e+00  -1.0228895e+00
  -1.4227817e+00  -1.0001347e+00
  -1.3251904e+00  -1.0081634e+00
  -1.2504682e+00  -9.8956087e-01
  -1.1615001e+00  -9.2677158e-01
  -1.0594194e+00  -7.2589304e-01
  -1.0068934e+00  -6.0933127e-01
  -9.2647164e-01  -6.9228493e-01
  -8.4165471e-01  -6.0455679e-01
  -7.8258280e-01  -4.8699583e-01
  -7.0934455e-01  -3.0544074e-01
  -6.3857602e-01  -4.3872950e-01
  -5.7429890e-01  -2.8759821e-01
  -5.3603922e-01  -2.9317935e-01
  -4.8880335e-01  -9.9171368e-02
  -4.2579057e-01  -4.3821111e-02
  -3.6509505e-01  -8.7619402e-02
  -3.1814585e-01   1.0506078e-02
  -2.8545068e-01   2.0022545e-01
  -2.6078787e-01   1.5479897e-01
  -2.1244140e-01   8.3095129e-02
  -1.9077835e-01   2.3211094e-01
  -1.4177060e-01   1.6993059e-01
  -1.1290096e-01   2.5014498e-01
  -8.4213031e-02   2.9766005e-01
  -9.1125796e-02   3.8893984e-01
  -3.7443510e-02   3.8505457e-01
  -8.6818478e-03   4.3244389e-01
   5.4900607e-03   3.6990122e-01
   8.9751779e-03   4.1534832e-01
   4.3625896e-02   4.0743439e-01
   5.5528997e-02   4.2451178e-01
   6.6850909e-02   4.3048898e-01
   9.1252351e-02   5.4896260e-01
   1.0625239e-01   5.6780034e-01
   1.1514879e-01   5.3727843e-01
   1.2670806e-01   5.4961880e-01
   1.5368688e-01   5.6135239e-01
   1.5339435e-01   5.7162249e-01
   1.8058515e-01   5.4376654e-01
   1.6767695e-01   4.9764032e-01
   1.5961999e-01   6.4250052e-01
   1.9649893e-01   5.6491380e-01
   2.1381040e-01   7.1894150e-01
   2.0719690e-01   5.5152787e-01
   2.3334445e-01   6.0140129e-01
   2.2968480e-01   6.1444065e-01
   2.4769508e-01   4.6623352e-01
   2.4521058e-01   6.0375597e-01
   2.5312157e-01   6.0648901e-01
   2.5648513e-01   6.5520325e-01
   2.5978635e-01   5.8879878e-01
   2.6362407e-01   5.0927388e-01
   2.7259752e-01   6.8979674e-01
   2.7184235e-01   6.1560960e-01
   2.8180018e-01   6.2024968e-01
   2.7805073e-01   6.3657654e-01
   2.9189288e-01   5.5451603e-01
   3.2181314e-01   6.2022529e-01
   3.1949175e-01   5.8281637e-01
   3.0638449e-01   6.0795183e-01
   3.0543731e-01   5.8987961e-01
   3.0671004e-01   5.5575942e-01
   3.2408198e-01   5.8713388e-01
   3.2040386e-01   5.5448070e-01
   3.2921963e-01   6.7544704e-01
   3.3983628e-01   5.8282902e-01
   3.2934054e-01   5.4950946e-01
   3.3763308e-01   5.9967236e-01
   3.6595459e-01   5.5542728e-01
   3.5524573e-01   5.8002046e-01
   3.6601775e-01   5.1830460e-01
   3.6330428e-01   5.0751498e-01
   3.6086446e-01   6.8767914e-01
   3.8001276e-01   6.1141688e-01
   3.6025449e-01   6.2019346e-01
   3.7909331e-01   5.0447928e-01
   3.8967236e-01   6.3163856e-01
   3.7033973e-01   5.4452286e-01
   3.9033274e-01   6.1684718e-01
   3.9003491e-01   6.0343435e-01
   3.9357012e-01   5.5784159e-01
   3.8490444e-01   5.9078449e-01
   3.9370042e-01   6.6054840e-01
   4.0919921e-01   6.3235264e-01
   3.9774251e-01   5.8410705e-01
   3.9899752e-01   5.6823654e-01
   4.0741625e-01   6.1814943e-01
   4.1748893e-01   6.2367337e-01
   4.1751005e-01   6.6340948e-01
   4.2026397e-01   5.9420905e-01
   4.2842520e-01   5.9939844e-01
   4.1590627e-01   6.2663220e-01
   4.1472586e-01   5.9673444e-01
   4.0375330e-01   5.9617240e-01
   4.3141216e-01   6.4541693e-01
   4.3209814e-01   6.1155924e-01
   4.1992664e-01   5.4465851e-01
   4.1031135e-01   5.7271376e-01
   4.2585007e-01   6.1632007e-01
   4.4573179e-01   6.2130461e-01
   4.3487794e-01   6.2908456e-01
   4.2838029e-01   6.5767915e-01
   4.3989468e-01   5.8897075e-01
   4.2714721e-01   5.5860239e-01
   4.4697255e-01   5.9332643e-01
   4.3224745e-01   4.9227920e-01
   4.3865805e-01   6.2926173e-01
   4.3511744e-01   5.9136363e-01
   4.4508634e-01   5.8771615e-01
   4.2964604e-01   6.4511709e-01
   4.4601468e-01   6.5309643e-01
   4.4422651e-01   5.4870827e-01
   4.3304592e-01   6.4968261e-01
   4.4207557e-01   6.7185005e-01
   4.1934844e-01   5.6885106e-01
   4.2531725e-01   5.8100276e-01
   4.5549534e-01   4.6996957e-01
   4.6650647e-01   5.5537575e-01
   4.5127681e-01   4.4364052e-01
   4.5963359e-01   6.1499506e-01
   4.5571266e-01   4.9879928e-01
   4.5665876e-01   5.3773603e-01
   4.5206430e-01   5.1741530e-01
   4.6811391e-01   4.9225367e-01
   4.4600909e-01   5.5731392e-01
   4.4573312e-01   4.8773541e-01
   4.6384608e-01   5.2544882e-01
   4.6695087e-01   5.8832164e-01
   4.7195112e-01   5.5151698e-01
   4.6360056e-01   5.8185136e-01
   4.5609434e-01   5.8443723e-01
   4.5002825e-01   5.8358711e-01
   4.7179610e-01   5.8207239e-01
   4.5925187e-01   5.9224976e-01
   4.5831247e-01   5.4214879e-01
   4.4979041e-01   5.8161971e-01
   4.5852445e-01   4.9546498e-01
   4.7210965e-01   4.6927044e-01
   4.6330179e-01   5.6588953e-01
   4.6314219e-01   6.1871405e-01
   4.5994389e-01   5.5665157e-01
   4.8490223e-01   6.2931878e-01
   4.7610783e-01   6.4310740e-01
   4.5990671e-01   5.5375336e-01
   4.8710915e-01   4.7714307e-01
   4.7969639e-01   4.1508897e-01
   4.6980584e-01   5.2756675e-01
   4.8050848e-01   3.3552120e-01
   4.6637588e-01   2.8186444e-01
   4.6082850e-01   2.1409428e-01
   4.7761166e-01   3.4239975e-01
   4.8297075e-01   5.3343391e-01
   4.7856816e-01   7.4897715e-01
   4.8046685e-01   9.3850147e-01
   4.9186360e-01   1.2041674e+00
   4.5505433e-01   9.7165353e-01
   4.7157625e-01   7.0557513e-01
   4.8166222e-01   4.1955725e-01
   4.7282116e-01   5.5033773e-01
   4.9353967e-01   5.5875577e-01
   4.8706470e-01   5.1195339e-01
   4.5612997e-01   5.7669201e-01
   4.7473548e-01   5.0729594e-01
   4.6411872e-01   4.4220155e-01
   4.5583883e-01   4.5203403e-01
   4.7416274e-01   4.8537672e-01
   4.7660685e-01   5.3874322e-01
   4.4832801e-01   5.3847184e-01
   4.8492835e-01   4.5568944e-01
   4.6156064e-01   5.3782885e-01
   4.7825229e-01   5.2861633e-01
   4.8693454e-01   5.2407662e-01
   4.7563668e-01   5.2561931e-01
   4.8166998e-01   5.7701318e-01
   4.8043660e-01   5.6627027e-01
   4.7181683e-01   5.9720775e-01
   4.5430292e-01   4.6605523e-01
   5.0216089e-01   6.1326230e-01
   4.6124999e-01   4.6373152e-01
   4.8099127e-01   5.0347314e-01
   4.7530733e-01   5.1037740e-01
   4.7296657e-01   5.1547852e-01
   4.7092084e-01   5.6241626e-01
   4.6171227e-01   5.9534397e-01
   4.8036481e-01   4.9274539e-01
   4.6798222e-01   5.8042722e-01
   4.7945519e-01   5.7444156e-01
   4.6498494e-01   4.4244780e-01
   4.7772488e-01   6.0933003e-01
   4.8179850e-01   5.3590117e-01
   4.8131225e-01   5.3595444e-01
   4.8204491e-01   5.8095411e-01
   4.8448971e-01   6.3744671e-01
   4.9326150e-01   5.9744026e-01
   4.6651839e-01   5.8893921e-01
   4.7465172e-01   5.6533251e-01
   4.8696121e-01   5.2647277e-01
   4.9242431e-01   6.1359209e-01
   4.6006392e-01   6.3278727e-01
   4.8605901e-01   5.6704440e-01
   4.6265411e-01   4.5383984e-01
   4.9668505e-01   5.1557586e-01
   4.8678350e-01   5.7134969e-01
   4.6734637e-01   5.9639486e-01
   4.7630014e-01   5.2297692e-01
   4.8474981e-01   5.6393071e-01
   4.9228543e-01   6.0971162e-01
   4.6589930e-01   5.3206801e-01
   4.7708828e-01   5.6723969e-01
   4.7183577e-01   4.9151061e-01
   4.8298237e-01   5.9263960e-01
   4.7377735e-01   5.3625188e-01
   4.8418903e-01   5.8964147e-01
   4.8671892e-01   6.2636038e-01
   4.8133203e-01   6.1797596e-01
   4.6139233e-01   5.7997083e-01
   4.7534458e-01   5.3476103e-01
   4.8372443e-01   6.6787792e-01
   4.8298623e-01   5.0363110e-01
   4.6466745e-01   6.4508567e-01
   4.8718508e-01   5.6073975e-01
   4.9488304e-01   5.8345418e-01
   4.8005489e-01   5.8493907e-01
   4.7150488e-01   5.8202620e-01
   4.7934769e-01   6.0815900e-01
   4.6358068e-01   5.3303443e-01
   4.8853251e-01   6.0846301e-01
   4.8218594e-01   4.9826982e-01
   4.8116276e-01   5.5994416e-01
   4.7125282e-01   5.2475614e-01
   4.5996882e-01   5.2675677e-01
   4.7942928e-01   4.6918607e-01
   4.8972914e-01   5.0491013e-01
   4.6928756e-01   7.0093392e-01
   4.8301850e-01   5.9707566e-01
   4.7357892e-01   4.0100872e-01
   4.7946296e-01   6.7615975e-01
   4.6971934e-01   6.5175701e-01
   4.9101673e-01   5.5658517e-01
   4.9410470e-01   4.1945037e-01
   4.7880791e-01   3.6318588e-01
   4.8238856e-01   5.3412776e-01
   4.7268894e-01   6.1323083e-01
   4.8557158e-01   5.5597477e-01
   4.8321403e-01   6.2791065e-01
   4.6847051e-01   6.2639796e-01
   4.7111798e-01   5.3904816e-01
   4.6296028e-01   4.7959131e-01
   4.6508738e-01   4.9533397e-01
   4.8313002e-01   3.5798855e-01
   4.8366414e-01   5.3345083e-01
   4.8909846e-01   4.7332446e-01
   4.8349728e-01   4.9280590e-01
   4.9274926e-01   4.6277414e-01
   4.6788207e-01   4.8853288e-01
   4.7960914e-01   5.3309117e-01
   4.8879107e-01   5.0164275e-01
   4.7792523e-01   4.3885856e-01
   4.9315772e-01   5.2504067e-01
   4.6887788e-01   5.3292782e-01
   4.8659974e-01   4.9191517e-01
   4.7900558e-01   3.8653628e-01
   4.8183837e-01   4.6237988e-01
   4.8686122e-01   5.1077671e-01
   4.7643730e-01   4.1844982e-01
   4.7550278e-01   4.2551306e-01
   4.8961592e-01   5.2075112e-01
   4.9250991e-01   5.1090130e-01
   4.7981406e-01   4.9455813e-01
   4.6430414e-01   4.5780722e-01
   4.8272798e-01   4.9420844e-01
   4.8723678e-01   5.2235815e-01
   4.8272073e-01   4.6250343e-01
   4.7387462e-01   4.8076804e-01
   4.9197974e-01   4.5895109e-01
   4.9487506e-01   4.7625198e-01
   4.8199005e-01   3.8901061e-01
   4.8744379e-01   4.5682895e-01
   4.7685496e-01   5.3505756e-01
   5.0023142e-01   5.5814342e-01
   4.8823476e-01   5.1421208e-01
   4.8710371e-01   4.9942102e-01
   4.7168314e-01   4.5093980e-01
   4.8237503e-01   4.6268966e-01
   4.9030826e-01   4.1257581e-01
   4.7733691e-01   3.6804613e-01
   4.7216596e-01   4.3940616e-01
   4.4158413e-01   4.4623359e-01
   4.7571050e-01   4.2773717e-01
   4.7256486e-01   3.4752150e-01
   4.4007074e-01   4.2177283e-01
   4.4766411e-01   2.9187662e-01
   4.3611716e-01   3.3045092e-01
   4.0490569e-01   3.8242307e-01
   3.9742738e-01   2.7962837e-01
   3.4383100e-01   2.9831658e-01
   2.9880749e-01   4.6408015e-01
   2.5016018e-01   2.6006678e-01
   1.6743039e-01   3.9279777e-01
   1.0118766e-01   3.5010184e-01
   5.7467548e-02   4.4774999e-01
   2.1565087e-02   3.1650289e-01
   8.2329206e-03   2.7116314e-01
   2.0001007e-02   4.0684940e-01
  -6.7878914e-04   3.4974718e-01
  -2.4679577e-02   3.9019929e-01
  -4.6335270e-02   2.8749002e-01
  -5.4871782e-02   3.1792559e-01
  -1.1806411e-01   2.8730449e-01
  -1.5553550e-01   3.4814605e-01
  -2.0126023e-01   2.8510499e-01
  -1.9885733e-01   3.1022969e-01
  -2.2919780e-01   2.5329742e-01
  -2.2925923e-01   2.2338386e-01
  -2.5362081e-01   2.1703230e-01
  -2.4437452e-01   1.9574008e-01
  -2.3854666e-01   2.5664423e-01
  -2.2819767e-01   2.1779492e-01
  -1.9391252e-01   8.3073540e-02
  -1.9272840e-01   2.6050116e-01
  -1.6032229e-01   1.9351268e-01
  -1.0854365e-01   1.1999232e-01
  -8.1261389e-02   6.3790252e-02
  -3.7425931e-02   1.1848306e-01
   1.1999901e-02   4.6244692e-02
   8.0531771e-02   3.2429572e-02
   1.1513728e-01   1.3666644e-01
   1.5349591e-01   1.5578514e-01
   1.9130124e-01   1.2620423e-01
   2.1690294e-01   7.8742474e-02
   2.4458317e-01   1.5370488e-01
   2.5443568e-01   2.2855168e-01
   2.3214290e-01   1.0930034e-01
   2.5927017e-01   5.8051161e-02
   2.6351686e-01   1.5486791e-01
   2.5250063e-01   2.5400666e-01
   2.9049811e-01   2.8440707e-01
   3.4344287e-01   2.6585584e-01
   3.9857530e-01   2.5619697e-01
   4.3065308e-01   2.4343431e-01
   4.9575192e-01   2.4101498e-01
   5.2761936e-01   3.2881226e-01
   5.8884564e-01   3.1947521e-01
   5.8979722e-01   2.8359757e-01
   6.0250671e-01   2.4937573e-01
   6.1300033e-01   2.8718787e-01
   6.0800099e-01   2.5035579e-01
   6.2649034e-01   1.9142273e-01
   6.2908537e-01   3.4800117e-01
   6.2275980e-01   3.8672109e-01
   6.3425034e-01   2.9122950e-01
   6.1894250e-01   3.7230870e-01
   6.3460761e-01   3.1156921e-01
   6.1935727e-01   3.8123782e-01
   6.1281179e-01   3.4665596e-01
   6.2056115e-01   4.1554435e-01
   6.2995888e-01   3.4079484e-01
   6.2033974e-01   3.6939154e-01
   6.0507802e-01   3.5094901e-01
   6.2355031e-01   4.6242154e-01
   6.0709861e-01   2.2169431e-01
   6.0344800e-01   2.9061738e-01
   6.0609550e-01   4.2311018e-01
   5.9916702e-01   3.8710850e-01
   6.0680448e-01   2.8974490e-01
   6.0022457e-01   4.1871573e-01
   5.9723579e-01   3.0123582e-01
   5.6932857e-01   4.6049024e-01
   5.8595800e-01   3.4810536e-01
   5.5032210e-01   4.7101050e-01
   5.5927950e-01   3.3690455e-01
   5.6362687e-01   4.3165052e-01
   5.4473058e-01   2.4069597e-01
   5.0404127e-01   4.1382007e-01
   4.6133133e-01   2.6117848e-01
   3.5466500e-01   4.4497932e-01
   2.2483605e-01   3.7783486e-01
   2.2634918e-02   4.8695145e-01
  -2.1902237e-01   8.2369319e-01
  -5.3460824e-01   9.8724832e-01
  -8.9356202e-01   1.2884069e+00
  -1.2234142e+00   1.3826742e+00
  -1.5452286e+00   1.4012913e+00
  -1.7550683e+00   9.8527431e-01
  -1.8434831e+00   6.6384041e-01
  -1.7767786e+00   3.8555303e-02
  -1.5926222e+00  -4.8502636e-01
  -1.2724779e+00  -1.1215158e+00
  -9.3950571e-01  -1.8794088e+00
  -6.0589361e-01  -2.6587552e+00
  -3.1182085e-01  -3.3602078e+00
  -5.1061984e-02  -3.7055106e+00
   1.2571894e-01  -3.9733701e+00
   2.8302311e-01  -4.3369601e+00
   3.5924600e-01  -4.6620200e+00
   4.5568802e-01  -5.0203804e+00
   5.9060846e-01  -5.2821626e+00
   7.3189754e-01  -5.4752018e+00
   9.3488023e-01  -5.4313565e+00
   1.1887859e+00  -5.2553351e+00
   1.4873360e+00  -4.8878834e+00
   1.8655222e+00  -4.6762165e+00
   2.2100040e+00  -4.4359941e+00
   2.4920576e+00  -3.6240100e+00
   2.7477220e+00  -3.0226192e+00
   2.8813139e+00  -2.0613517e+00
   2.8879029e+00  -1.3199507e+00
   2.7460007e+00  -7.2293829e-01
   2.5094207e+00  -3.9496843e-01
   2.1897213e+00  -2.0938750e-01
   1.8195512e+00  -3.5255796e-03
   1.4499606e+00   5.1775154e-02
   1.1405433e+00  -1.2471000e-02
   8.1906141e-01   1.9534900e-02
   5.9557820e-01   1.3685835e-01
   4.3098940e-01  -1.1184734e-02
   2.8289959e-01  -5.1922626e-04
   2.0554263e-01  -4.9116767e-02
   1.4585927e-01  -5.8398319e-02
   1.1359909e-01   9.3656486e-02
   8.5919096e-02   1.3962408e-01
   6.0426424e-02   7.1191755e-02
   5.6903786e-02   1.8344075e-01
   4.1168760e-02   1.9353932e-01
   4.1602592e-02   1.4044915e-01
  -3.9470404e-03   2.7844453e-01
  -7.1537485e-03   1.0368762e-01
  -1.1965163e-02   1.8303519e-01
  -5.2500645e-02   2.8928369e-01
  -4.7862557e-02   2.5474768e-01
  -5.1983781e-02   2.6299397e-01
  -6.6410663e-02   2.2217886e-01
  -8.3599860e-02   1.6309415e-01
  -1.1876739e-01   2.6150965e-01
  -1.1122418e-01   2.9139790e-01
  -1.1785799e-01   2.1658510e-01
  -1.3167468e-01   2.7112723e-01
  -1.7254096e-01   2.3628894e-01
  -1.8347252e-01   1.8257745e-01
  -2.0656369e-01   2.5804537e-01
  -2.0211804e-01   2.0437278e-01
  -2.3295387e-01   2.5815157e-01
  -2.4519547e-01   2.7423268e-01
  -2.5392992e-01   1.0813079e-01
  -2.9743975e-01   2.4114485e-01
  -2.9892637e-01   3.1270120e-01
  -3.2413911e-01   2.9974570e-01
  -3.3035876e-01   2.2630097e-01
  -3.5789301e-01   1.3871553e-01
  -3.6114739e-01   1.4078500e-01
  -3.8714733e-01   1.4582545e-01
  -4.1417296e-01   2.0020423e-01
  -4.4275039e-01   1.7444925e-01
  -4.4782263e-01   8.8824144e-02
  -4.9710511e-01   1.0839919e-01
  -4.9413514e-01   1.4313620e-01
  -5.2558230e-01   2.0578947e-01
  -5.3962598e-01   1.0765194e-01
  -5.4783554e-01   9.8996097e-02
  -5.7169794e-01   1.0170671e-01
  -5.9999356e-01  -6.6261119e-02
  -6.3033036e-01   1.6985183e-01
  -6.3997178e-01   8.7311686e-02
  -6.7767874e-01   7.2583450e-02
  -6.9985008e-01   5.7845838e-02
  -7.0845173e-01   1.3641972e-01
  -7.3638755e-01   1.9109927e-01
  -7.6337727e-01  -1.0580929e-02
  -7.8165039e-01   1.2245507e-01
  -8.0652429e-01  -5.5694072e-03
  -8.1053953e-01   1.1430134e-01
  -8.5911204e-01  -1.5679148e-02
  -8.8300266e-01   1.8784933e-01
  -9.0326975e-01   3.3752562e-02
  -9.1618787e-01   5.2269462e-02
  -9.5309031e-01  -4.8717626e-03
  -9.7573287e-01   6.4286029e-03
  -9.8167306e-01  -4.5405370e-02
  -1.0287442e+00  -5.1896795e-02
  -1.0487323e+00   7.5584054e-02
  -1.0599510e+00  -1.2310678e-01
  -1.0724121e+00  -1.0654516e-01
  -1.0996765e+00  -1.9061508e-01
  -1.1427555e+00  -9.6204319e-02
  -1.1569182e+00  -1.2469697e-01
  -1.1739221e+00  -1.8790471e-01
  -1.2079132e+00  -1.8959603e-01
  -1.2318231e+00  -2.4804770e-01
  -1.2602940e+00  -1.8229532e-01
  -1.2907170e+00  -2.7049658e-01
  -1.2969614e+00  -2.0506859e-01
  -1.3332259e+00  -3.6499897e-01
  -1.3601137e+00  -2.1461922e-01
  -1.3969713e+00  -3.0931047e-01
  -1.4230320e+00  -2.7690675e-01
  -1.4513977e+00  -2.8036724e-01
  -1.4776541e+00  -3.3953027e-01
  -1.5231664e+00  -5.3217773e-01
  -1.5497989e+00  -4.9216531e-01
  -1.5816361e+00  -4.2619469e-01
  -1.6231418e+00  -4.3897599e-01
  -1.6816827e+00  -4.5182683e-01
  -1.7062746e+00  -4.9579078e-01
  -1.7525593e+00  -5.6808648e-01
  -1.7848309e+00  -5.7891961e-01
  -1.8541186e+00  -5.2492095e-01
  -1.9110445e+00  -5.6139438e-01
  -1.9290792e+00  -5.6777613e-01
  -1.9961331e+00  -6.2321506e-01
  -2.0549256e+00  -7.3235807e-01
  -2.0908755e+00  -7.0294101e-01
  -2.1524948e+00  -6.7224783e-01
  -2.2107175e+00  -8.8226220e-01
  -2.2831743e+00  -7.2491234e-01
  -2.3457424e+00  -7.8149871e-01
  -2.4017268e+00  -8.7685787e-01
  -2.4412576e+00  -9.2916644e-01
  -2.5279833e+00  -8.9858912e-01
  -2.5705720e+00  -8.5680701e-01
  -2.6296630e+00  -9.6889836e-01
  -2.6809832e+00  -1.1254079e+00
  -2.7445075e+00  -1.1496771e+00
  -2.7678082e+00  -1.0158293e+00
  -2.7977159e+00  -1.1702354e+00
  -2.8537579e+00  -1.1291315e+00
  -2.8737123e+00  -1.3126959e+00
  -2.9023982e+00  -1.2810429e+00
  -2.9562228e+00  -1.3900355e+00
  -2.9763440e+00  -1.4336236e+00
  -2.9840876e+00  -1.4995738e+00
  -2.9952803e+00  -1.6021718e+00
  -2.9962733e+00  -1.5537852e+00
  -2.9652901e+00  -1.6778837e+00
  -2.9727596e+00  -1.7327598e+00
  -2.9653995e+00  -1.6801930e+00
  -2.9117968e+00  -1.7359936e+00
  -2.8829893e+00  -1.8735237e+00
  -2.8560050e+00  -1.8524130e+00
  -2.8248321e+00  -1.8918668e+00
  -2.7733251e+00  -1.8536888e+00
  -2.7104263e+00  -1.9274750e+00
  -2.6340785e+00  -1.9611556e+00
  -2.5734195e+00  -1.9035017e+00
  -2.5040925e+00  -1.9573885e+00
  -2.4251175e+00  -1.8959152e+00
  -2.3404707e+00  -2.1660751e+00
  -2.2541504e+00  -1.9051067e+00
  -2.1698574e+00  -1.8747589e+00
  -2.0750533e+00  -1.8946686e+00
  -1.9879727e+00  -1.9581759e+00
  -1.8883315e+00  -1.8248116e+00
  -1.8029584e+00  -1.8828777e+00
  -1.7198425e+00  -1.6983696e+00
  -1.6359526e+00  -1.6295554e+00
  -1.5172509e+00  -1.7405296e+00
  -1.4392382e+00  -1.6160994e+00
  -1.3588686e+00  -1.6500095e+00
  -1.2429102e+00  -1.4542491e+00
  -1.1650689e+00  -1.4732194e+00
  -1.0949721e+00  -1.3660620e+00
  -1.0085380e+00  -1.3682822e+00
