  6.6351380e-001  9.2790379e-001  1.2400951e+000  8.2833542e-001  6.5687276e-001  5.6228216e-001  1.0737068e+000  5.4566251e-001
  8.1684551e-001  9.5843901e-001  1.5153623e+000  1.0703990e+000  1.1690533e+000  8.8873559e-001  1.6560695e+000  9.9212811e-001
  7.5583685e-001  9.1906598e-001  9.8360688e-001  7.7464593e-001  1.2235169e+000  1.0900733e+000  1.5783155e+000  1.0807300e+000
  7.4802009e-001  5.0163983e-001  5.9129462e-001  4.6519184e-001  1.2046807e+000  4.7724660e-001  1.0771790e+000  1.1522311e+000
  1.0071765e+000  9.3795230e-001  1.2387650e+000  1.0525990e+000  1.4517372e+000  1.0538688e+000  1.5787168e+000  1.3101718e+000
  9.3363530e-001  4.8601577e-001  8.2156353e-001  6.3367379e-001  1.1458978e+000  5.7021970e-001  4.7824002e-001  1.1834948e+000
  3.1410531e-001  2.0888172e-001  4.3949645e-001  2.8319213e-001  4.5673270e-001  4.5520501e-001  3.9503845e-001  4.3115606e-001
  1.2280058e+000  1.3251147e+000  1.6979005e+000  1.3679456e+000  1.0358015e+000  6.0263572e-001  9.0071805e-001  1.0060123e+000
  1.0240423e+000  6.5675958e-001  1.2751864e+000  9.2270594e-001  1.2578959e+000  9.5576056e-001  1.1880895e+000  1.1665587e+000
  8.0628052e-001  5.0758666e-001  8.2853266e-001  5.4657803e-001  1.7153587e+000  1.0049713e+000  1.5501465e+000  1.6431910e+000
  1.2578428e+000  1.2129167e+000  1.5810490e+000  1.2023387e+000  1.1853521e+000  7.9313981e-001  1.4696539e+000  1.0664284e+000
  5.9694873e-001  4.6450165e-001  8.5382560e-001  6.8211512e-001  1.7871483e+000  1.1482837e+000  1.6745026e+000  1.7031007e+000
  8.1937752e-001  6.4568997e-001  1.1729059e+000  6.2923344e-001  1.2974263e+000  9.6927512e-001  1.7499945e+000  1.1241372e+000
  3.3366438e-001  2.5504626e-001  6.7521320e-001  2.9744154e-001  1.1448900e+000  8.5307239e-001  9.4431563e-001  1.0736171e+000
  8.1980423e-001  5.9968164e-001  1.2903247e+000  6.1836573e-001  1.4757418e+000  6.5738457e-001  1.2369862e+000  1.4531692e+000
  1.3141820e+000  1.1662948e+000  1.6602049e+000  1.2432746e+000  1.1819910e+000  9.0150203e-001  1.4869434e+000  1.0581606e+000
  9.2487554e-001  9.1854857e-001  1.4409310e+000  8.7778075e-001  1.6511390e+000  1.2508909e+000  1.6935571e+000  1.5280190e+000
  8.6362489e-001  4.1345085e-001  8.1496247e-001  5.6459940e-001  1.4750763e+000  1.0126592e+000  8.4110306e-001  1.4672743e+000
  9.5307624e-001  9.3764651e-001  1.4929274e+000  9.7223394e-001  6.6537023e-001  3.2443880e-001  7.2948304e-001  6.1421763e-001
  2.6859861e-001  1.4484537e-001  3.8715160e-001  1.9721396e-001  1.1873846e+000  1.0026296e+000  1.3056198e+000  1.0648586e+000
  1.1038956e+000  9.7483134e-001  1.1354053e+000  9.5022911e-001  1.8933405e+000  1.3154854e+000  1.9391174e+000  1.7484018e+000
  7.9945961e-001  8.2905374e-001  1.4497312e+000  9.6507639e-001  1.2733522e+000  1.0889043e+000  1.5814398e+000  1.1425511e+000
  1.3178769e+000  1.3437734e+000  1.9148563e+000  1.4334190e+000  1.1208091e+000  6.6744095e-001  6.9598256e-001  1.1405642e+000
  9.3845178e-001  8.8200554e-001  1.3440427e+000  8.7636971e-001  1.2052127e+000  5.9305580e-001  5.1047795e-001  1.2477161e+000
  3.1534664e-001  4.1999587e-001  5.1883559e-001  4.7313096e-001  9.5360346e-001  1.0489107e+000  1.1909196e+000  8.2860330e-001
  5.5682393e-001  7.4091687e-001  1.0317057e+000  6.9619570e-001  1.3271927e+000  9.7135909e-001  1.4611415e+000  1.2009338e+000
  7.7664213e-001  1.0178201e+000  1.1441328e+000  9.4906789e-001  8.7194585e-001  7.6663647e-001  1.1185688e+000  7.5758034e-001
  9.5278141e-001  1.0947636e+000  1.4985752e+000  1.1865311e+000  1.1402200e+000  1.1147579e+000  1.4700322e+000  9.8354798e-001
  6.1731799e-001  4.3707096e-001  6.5993657e-001  5.8512846e-001  9.6622652e-001  8.7786533e-001  1.7405797e+000  7.6023308e-001
  7.2778779e-001  6.3219846e-001  7.5311142e-001  5.6398469e-001  8.7499109e-001  9.0252763e-001  9.6253172e-001  7.6399743e-001
  7.6043952e-001  4.5360626e-001  1.0310618e+000  6.7189728e-001  1.4249881e+000  1.1729351e+000  1.8428637e+000  1.2333352e+000
  7.6281102e-001  6.0059752e-001  1.4193760e+000  7.8564849e-001  8.5421893e-001  6.2471214e-001  8.5612820e-001  7.8507112e-001
  9.6254901e-001  5.3319982e-001  9.0635509e-001  7.4553768e-001  2.6246729e-001  1.4227173e-001  3.0155041e-001  2.3769783e-001
  5.4275281e-001  4.3336618e-001  7.7501847e-001  4.4247352e-001  1.1983739e+000  7.1243394e-001  7.2119214e-001  1.2116641e+000
  7.1345613e-001  7.0945285e-001  1.3210908e+000  8.9999761e-001  1.5384321e+000  1.1160048e+000  1.5898402e+000  1.4245427e+000
  4.3210928e-001  2.0716017e-001  5.3475945e-001  2.6563238e-001  1.8998803e+000  1.4808147e+000  1.7088901e+000  1.7794100e+000
  1.2168878e+000  1.0600874e+000  1.8594383e+000  1.1381445e+000  1.1163640e+000  4.6029912e-001  1.1509971e+000  1.0411291e+000
  5.4535029e-001  6.0435827e-001  7.8898588e-001  6.0957896e-001  1.5059322e+000  1.1073786e+000  1.7582468e+000  1.3586089e+000
  4.4714639e-001  6.7898706e-001  6.8058891e-001  5.8466563e-001  9.6136423e-001  5.3566511e-001  1.1392432e+000  8.9145589e-001
  6.7969219e-001  7.1898784e-001  1.1865338e+000  8.5174089e-001  9.7033619e-001  4.3654157e-001  5.6802583e-001  1.0075294e+000
  9.9298252e-001  8.7317275e-001  1.1088024e+000  1.0043193e+000  1.2711205e+000  1.1103524e+000  1.6813175e+000  1.0848841e+000
  1.0688315e+000  8.8555405e-001  1.1739927e+000  1.0311471e+000  1.3103211e+000  1.1858816e+000  1.5536996e+000  1.1749849e+000
  7.5082332e-001  4.9644547e-001  8.9339578e-001  6.9707884e-001  7.3902489e-001  3.2734178e-001  4.7751090e-001  7.4564394e-001
  1.0158896e+000  7.5871980e-001  1.2043501e+000  7.0524358e-001  9.2713944e-001  5.6090230e-001  1.0741392e+000  8.5933585e-001
  1.2546362e+000  9.6473035e-001  1.5270011e+000  9.8324792e-001  8.5124058e-001  6.2577950e-001  8.9996557e-001  7.9995210e-001
  1.1337291e+000  9.3631608e-001  1.4329616e+000  1.1202034e+000  8.7757448e-001  5.2406838e-001  1.3096593e+000  7.6538167e-001
  1.3351077e+000  1.2977185e+000  2.0351955e+000  1.3414539e+000  7.9310914e-001  3.7697007e-001  1.0706330e+000  7.1081394e-001
  8.3697913e-001  1.0801790e+000  1.7256460e+000  1.0987488e+000  9.2765147e-001  9.6326962e-001  9.1643166e-001  8.4424692e-001
  6.0000108e-001  1.6728827e-001  7.8534816e-001  2.1232615e-001  1.5507252e+000  1.2308431e+000  1.1219999e+000  1.5032614e+000
  1.0731214e+000  1.2162311e+000  1.4286625e+000  1.2131951e+000  5.0699246e-001  4.1710381e-001  7.0386029e-001  4.3302088e-001
  4.4830666e-001  2.2303454e-001  6.1204981e-001  2.2458000e-001  1.6695250e+000  1.0585043e+000  1.4190536e+000  1.5990446e+000
  6.3561769e-001  4.6647847e-001  8.2574221e-001  5.5713778e-001  1.2758670e+000  1.0576994e+000  1.0433883e+000  1.2283174e+000
  8.1079873e-001  7.9517030e-001  1.2561957e+000  9.9671523e-001  1.3635889e+000  6.5417548e-001  1.2571362e+000  1.3066214e+000
  7.3436490e-001  7.6516989e-001  1.2170961e+000  6.8298225e-001  1.0702876e+000  7.8051757e-001  1.3078145e+000  9.5613724e-001
  7.2755830e-001  7.1046750e-001  1.2393957e+000  6.1596274e-001  1.7900049e+000  1.1379065e+000  1.4674178e+000  1.7273314e+000
  8.2798396e-001  6.7679517e-001  1.2008136e+000  8.9597151e-001  1.1987623e+000  7.0479034e-001  1.3854067e+000  1.0811124e+000
  1.0996566e+000  7.9324273e-001  1.5532533e+000  8.5803152e-001  1.3264842e+000  9.6519396e-001  1.4973996e+000  1.2278322e+000
  6.4736348e-001  5.4047190e-001  9.1514224e-001  5.9284050e-001  1.6179052e+000  8.6831307e-001  5.9833365e-001  1.6825026e+000
  7.7597750e-001  7.2087178e-001  1.4841737e+000  9.4879198e-001  9.3412387e-001  7.5816571e-001  1.5258957e+000  7.6985506e-001
  7.8182852e-001  5.2403728e-001  1.2507109e+000  7.9252719e-001  1.3570696e+000  9.1954183e-001  1.4637334e+000  1.2353579e+000
  6.8085091e-001  9.6554209e-001  1.1245560e+000  8.6076984e-001  1.2722315e+000  1.1403706e+000  1.6484091e+000  1.0832362e+000
  3.8140654e-001  4.6223731e-001  6.8001680e-001  3.9693070e-001  9.9160729e-001  1.0201813e+000  1.0461167e+000  8.9317468e-001
  1.0908114e+000  7.2345508e-001  1.2630973e+000  7.4949926e-001  1.6424621e+000  9.5064408e-001  1.2957736e+000  1.5931110e+000
  1.0489316e+000  8.8818637e-001  1.5018635e+000  1.0370818e+000  1.1119754e+000  5.8084998e-001  5.2261687e-001  1.1289529e+000
  1.2222818e+000  7.3458930e-001  1.6440126e+000  9.7614106e-001  1.3057475e+000  1.0334994e+000  1.7209557e+000  1.1544485e+000
  1.4239829e+000  1.3184655e+000  1.7307673e+000  1.3893840e+000  1.5307917e+000  1.3337774e+000  1.2380723e+000  1.4326869e+000
  4.5382593e-001  5.6203542e-001  8.0246133e-001  4.8812145e-001  1.9306677e+000  1.4355505e+000  1.9162832e+000  1.7826974e+000
  1.0562646e+000  1.0288015e+000  1.5920121e+000  1.0482374e+000  9.7299901e-001  5.6838143e-001  5.4308928e-001  1.0038809e+000
  2.8728101e-001  2.1864372e-001  3.0693098e-001  2.5381908e-001  1.7368649e+000  1.1904722e+000  1.9102861e+000  1.5854207e+000
  8.0974384e-001  3.4468247e-001  8.5040454e-001  4.6762104e-001  5.9267792e-001  4.3907560e-001  2.9725917e-001  6.0932414e-001
  1.9542323e-001  2.2850456e-001  3.6031654e-001  2.1486692e-001  9.4545990e-001  6.1124858e-001  8.0683923e-001  9.1338478e-001
  1.1836426e+000  1.0756497e+000  1.2978587e+000  1.0252196e+000  1.1181648e+000  5.1214147e-001  9.5227286e-001  1.1178471e+000
  7.1013848e-001  7.4447472e-001  1.1616887e+000  9.1771509e-001  8.2342691e-001  3.2688538e-001  1.0137796e+000  7.5136054e-001
  6.2794967e-001  1.6631122e-001  8.3962947e-001  2.3091616e-001  1.2210934e+000  5.1395084e-001  1.0568266e+000  1.2110472e+000
  6.8947239e-001  4.5001813e-001  8.3402537e-001  5.8783584e-001  2.0024452e+000  1.5245771e+000  1.6900258e+000  1.9039278e+000
  1.1668532e+000  8.6833946e-001  1.7223366e+000  1.0870609e+000  1.3220320e+000  1.1193456e+000  1.8298621e+000  1.1387043e+000
  1.1795481e+000  9.5250617e-001  1.4515425e+000  9.8547274e-001  1.1122986e+000  8.6255791e-001  1.4568083e+000  9.8790897e-001
  1.0501480e+000  1.1905895e+000  1.9559554e+000  1.2774867e+000  1.1773996e+000  6.7063807e-001  1.2744260e+000  1.0854929e+000
  9.1797447e-001  9.6342512e-001  1.1462441e+000  9.0966021e-001  1.4030360e+000  8.7814937e-001  1.5633149e+000  1.2781058e+000
  6.3706937e-001  3.3833945e-001  9.9595558e-001  4.4692592e-001  1.2554649e+000  4.5843430e-001  1.0546589e+000  1.2527145e+000
  8.9321729e-001  7.8629404e-001  1.3755416e+000  7.5490399e-001  1.3703851e+000  1.2181425e+000  1.1671087e+000  1.2994333e+000
  1.1027866e+000  9.3475839e-001  1.3805843e+000  1.0329040e+000  1.3908305e+000  1.1432335e+000  1.3098071e+000  1.2998915e+000
  8.6597293e-001  7.0792877e-001  1.5057176e+000  9.0997009e-001  1.1607240e+000  9.0815617e-001  7.9909530e-001  1.1436571e+000
  8.5132283e-001  6.9734468e-001  8.7755851e-001  6.9665367e-001  1.0855175e+000  6.5909788e-001  1.2192399e+000  1.0059114e+000
  6.6310624e-001  3.3359150e-001  5.8651786e-001  4.1207722e-001  9.9540192e-001  7.5525991e-001  1.5704388e+000  8.4365407e-001
  9.8014392e-001  8.5909912e-001  9.1627098e-001  7.4348028e-001  8.8800006e-001  6.6988696e-001  1.3447969e+000  7.4329116e-001
  8.3919550e-001  2.3002007e-001  8.7047493e-001  3.1363935e-001  1.5706569e+000  1.0612905e+000  1.0735267e+000  1.5504129e+000
  1.0160531e+000  8.9649103e-001  1.3408684e+000  8.9528815e-001  1.5305846e+000  1.1653892e+000  1.2199770e+000  1.4494164e+000
  7.3904156e-001  8.3778608e-001  1.5471927e+000  8.8598167e-001  1.7101136e+000  1.0278122e+000  1.5676451e+000  1.6187496e+000
  1.0567146e+000  8.7287934e-001  1.4559511e+000  8.2357887e-001  7.0894942e-001  4.3695005e-001  5.3292127e-001  6.7809032e-001
  7.9999666e-001  4.1865524e-001  8.6893990e-001  4.3088202e-001  1.2288960e+000  6.2175609e-001  8.3674066e-001  1.2406808e+000
  7.3979196e-001  7.7441351e-001  1.1519389e+000  8.8050756e-001  6.0536795e-001  3.3675465e-001  3.6331225e-001  5.9183713e-001
  8.9325631e-001  8.4732577e-001  1.1395324e+000  7.5349555e-001  1.2143180e+000  8.8903408e-001  1.3248572e+000  1.1228668e+000
  1.3884615e+000  9.8405967e-001  1.8222935e+000  1.1855169e+000  1.3913143e+000  7.0312854e-001  8.0249007e-001  1.4008014e+000
  6.6877801e-001  6.9416436e-001  8.4002400e-001  5.8958140e-001  1.8695481e+000  1.0574175e+000  1.4058116e+000  1.8372054e+000
  7.4877060e-001  4.8709500e-001  1.0988409e+000  4.9772933e-001  1.8269509e+000  1.3345331e+000  1.4483871e+000  1.7522338e+000
  7.4979409e-001  6.0269662e-001  1.0167377e+000  5.6309422e-001  4.7403863e-001  1.8993112e-001  5.3250197e-001  4.4183120e-001
  1.0403983e+000  7.3990124e-001  1.1560142e+000  7.8453697e-001  1.3679555e+000  7.0755050e-001  9.4610094e-001  1.3605108e+000
  1.0374373e+000  8.2879619e-001  1.5460019e+000  9.1769964e-001  7.7606942e-001  8.1665571e-001  1.4425141e+000  6.0277416e-001
  1.1447025e+000  8.3763155e-001  1.2373689e+000  9.4345575e-001  1.3628458e+000  6.7994729e-001  9.3331659e-001  1.3664753e+000
  7.1648750e-001  8.4800254e-001  1.2216436e+000  8.0413884e-001  1.3812150e+000  1.2177054e+000  1.1502226e+000  1.2855309e+000
  7.4562177e-001  3.5759851e-001  7.2144460e-001  5.0280192e-001  1.7960715e+000  1.0074369e+000  1.3736668e+000  1.7616103e+000
  9.8606967e-001  7.2125087e-001  1.2581011e+000  9.0525135e-001  8.9566212e-001  7.7128550e-001  1.5053022e+000  7.3037357e-001
  1.2068685e+000  1.3485658e+000  2.1179654e+000  1.4437675e+000  1.5577807e+000  1.2200276e+000  1.5749356e+000  1.4253440e+000
  6.6756175e-001  4.8484114e-001  1.1448918e+000  6.0443451e-001  1.2598497e+000  1.1902794e+000  1.6754231e+000  1.0666068e+000
  5.9233489e-001  3.7986371e-001  4.8557127e-001  3.7318081e-001  1.3868190e+000  7.6795018e-001  1.1796990e+000  1.3495519e+000
  1.2514848e+000  9.9362789e-001  1.7904303e+000  1.1045239e+000  1.1488214e+000  6.3479220e-001  1.0605765e+000  1.0801435e+000
  7.0951270e-001  7.6943213e-001  9.8951353e-001  7.9097483e-001  1.3860183e+000  7.0055006e-001  6.9332520e-001  1.4113742e+000
  1.3598912e+000  1.1436098e+000  1.9137486e+000  1.2042079e+000  1.3156560e+000  9.7006601e-001  1.0699076e+000  1.2431953e+000
  7.5706969e-001  4.8408374e-001  6.9805440e-001  5.7627166e-001  1.4494891e+000  7.9358887e-001  6.2646687e-001  1.4851393e+000
  4.4774081e-001  5.7913108e-001  7.0619314e-001  5.3702588e-001  1.0587459e+000  7.6878981e-001  6.5916352e-001  1.0278988e+000
  1.1218939e+000  6.3726532e-001  1.3730452e+000  6.6648873e-001  1.1127435e+000  8.5472263e-001  1.4149595e+000  9.9198500e-001
  9.1540859e-001  9.1860749e-001  1.3034925e+000  1.0898172e+000  1.2446678e+000  8.0787012e-001  1.4067376e+000  1.1632243e+000
  4.2618255e-001  2.9492039e-001  8.7249906e-001  4.3891001e-001  9.1547249e-001  5.6918263e-001  1.3507528e+000  7.8775449e-001
  3.7556417e-001  2.5306616e-001  5.3199050e-001  3.1541036e-001  1.3962049e+000  1.0606176e+000  1.0754774e+000  1.3279791e+000
  1.1224430e+000  8.4948390e-001  1.4600396e+000  9.1506677e-001  1.4171174e+000  7.0229346e-001  1.1984260e+000  1.3965766e+000
  1.0291795e+000  6.6933895e-001  1.2799330e+000  9.0349472e-001  1.5243277e+000  1.2284183e+000  1.4088867e+000  1.4187187e+000
  1.1760976e+000  1.1519386e+000  1.4200426e+000  1.1512241e+000  1.4162879e+000  1.0368068e+000  1.4795004e+000  1.2960964e+000
  4.5170009e-001  6.0517557e-001  7.9424139e-001  6.6705519e-001  1.1976614e+000  9.5283839e-001  8.3210197e-001  1.1665296e+000
  7.9590614e-001  9.8594785e-001  1.5378100e+000  1.0051431e+000  9.4953449e-001  7.4893294e-001  8.6022795e-001  8.8135713e-001
  7.0915412e-001  4.9179847e-001  6.9824061e-001  5.9712525e-001  1.3612782e+000  1.2410451e+000  1.2535428e+000  1.2748868e+000
  1.2280830e+000  7.9551405e-001  1.6311732e+000  1.0487123e+000  1.0909415e+000  8.1600392e-001  9.1261948e-001  1.0511079e+000
  6.1419452e-001  5.2092863e-001  1.2122034e+000  6.7388252e-001  6.3038757e-001  2.6835505e-001  7.5076347e-001  5.7724845e-001
  6.5484842e-001  4.5462952e-001  1.0007124e+000  6.3520605e-001  1.7103020e+000  1.0077155e+000  1.1506375e+000  1.6957483e+000
  1.0289781e+000  8.9704627e-001  1.5270713e+000  1.0925292e+000  9.5292469e-001  4.8449535e-001  6.4727745e-001  9.6620142e-001
  5.0306237e-001  4.7421630e-001  6.1056471e-001  4.2166823e-001  1.6818006e+000  1.1337900e+000  1.6551102e+000  1.5711440e+000
  6.1445856e-001  5.9351321e-001  7.2731792e-001  5.6962250e-001  1.5043046e+000  8.2607879e-001  1.1715869e+000  1.4845891e+000
  8.9488941e-001  1.0003356e+000  1.4980315e+000  1.0994094e+000  1.1157470e+000  8.4152592e-001  1.4965124e+000  9.7184614e-001
  6.0936527e-001  3.0539635e-001  4.7649369e-001  3.6473505e-001  1.1310308e+000  8.8255533e-001  1.3406335e+000  9.9180061e-001
  1.1604279e+000  9.5871592e-001  1.5954160e+000  8.8982701e-001  1.6239880e+000  1.1136852e+000  1.3617436e+000  1.5576844e+000
  1.0559721e+000  5.3473751e-001  1.2911908e+000  7.1020991e-001  1.3523890e+000  8.5085053e-001  1.1323823e+000  1.3071416e+000
  8.3307888e-001  4.1042699e-001  9.5829661e-001  5.3368785e-001  9.3041514e-001  5.8021638e-001  4.6609212e-001  9.3068640e-001
  6.0981978e-001  5.9952790e-001  1.2346938e+000  7.8336715e-001  1.2981865e+000  9.7986223e-001  1.1647097e+000  1.2255009e+000
  8.6489319e-001  5.7901175e-001  8.5616256e-001  7.1615460e-001  8.9015891e-001  4.2436815e-001  5.1528755e-001  8.8649990e-001
  1.0603695e+000  5.6634053e-001  1.3053645e+000  7.9390422e-001  1.1738711e+000  5.5784611e-001  1.2831787e+000  1.0861262e+000
  1.3584656e+000  9.1179440e-001  1.7319513e+000  1.1208474e+000  9.7339168e-001  7.2525445e-001  1.1219945e+000  8.9264953e-001
  5.3887674e-001  3.9986201e-001  8.4597355e-001  3.7832860e-001  1.6870059e+000  1.0453382e+000  9.0739490e-001  1.7012717e+000
  1.2091845e+000  1.0956552e+000  1.9172682e+000  1.2440338e+000  1.5583034e+000  7.5133406e-001  8.2873269e-001  1.5968094e+000
  8.3945384e-001  2.2245691e-001  9.0113552e-001  2.9287295e-001  1.1038820e+000  7.3645743e-001  1.2656172e+000  9.8771790e-001
  5.5685444e-001  3.5454441e-001  9.5235354e-001  5.0111232e-001  1.5832359e+000  1.0177972e+000  1.5529156e+000  1.4877114e+000
  1.1749765e+000  9.8692984e-001  1.5907640e+000  1.0851244e+000  1.5461709e+000  1.0587505e+000  1.3781512e+000  1.4817113e+000
  1.2216792e+000  1.0136120e+000  1.6728671e+000  1.1130365e+000  1.5071795e+000  1.0559082e+000  1.8061433e+000  1.3585289e+000
  7.8995551e-001  8.7993838e-001  1.3661968e+000  9.3087103e-001  6.9673980e-001  9.1461184e-001  1.4273329e+000  5.0262836e-001
  8.0679866e-002  8.6464998e-002  1.3673637e-001  9.6042825e-002  1.3154698e+000  8.6743343e-001  1.2493896e+000  1.2458889e+000
  6.1372791e-001  6.6152174e-001  9.7099272e-001  7.4833292e-001  7.8102027e-001  5.6811186e-001  9.3565582e-001  6.9979687e-001
  9.5793696e-001  7.9268652e-001  1.2422794e+000  9.6738980e-001  1.6336807e+000  9.4477675e-001  1.6099929e+000  1.5300494e+000
  7.6643397e-001  9.7608036e-001  1.2238613e+000  9.2152391e-001  1.2386354e+000  5.0873678e-001  9.9895368e-001  1.2373063e+000
  5.4966139e-001  5.7389439e-001  1.0185766e+000  4.9711060e-001  1.3608033e+000  6.5322603e-001  5.1844361e-001  1.4210354e+000
  1.0413100e+000  1.0919528e+000  1.8534918e+000  1.1569754e+000  1.4352438e+000  7.1742612e-001  5.9377446e-001  1.4835174e+000
  9.6493959e-001  8.5789883e-001  1.2072385e+000  9.8654180e-001  7.6733245e-001  5.2011787e-001  1.2853297e+000  6.3240678e-001
  1.0843197e+000  1.0800162e+000  1.3050256e+000  1.0574593e+000  1.2003757e+000  7.2979806e-001  1.2466834e+000  1.1288598e+000
  9.4926906e-001  6.6925521e-001  1.3549827e+000  8.2683381e-001  5.4601440e-001  3.0099284e-001  8.6072531e-001  4.6612710e-001
  8.1219663e-001  5.0745612e-001  1.0657180e+000  6.5671291e-001  1.2708842e+000  5.3865409e-001  8.6760965e-001  1.2830773e+000
  9.6375400e-001  9.0979962e-001  1.2599199e+000  9.6873861e-001  1.5407343e+000  1.2478553e+000  1.7867249e+000  1.3672304e+000
  5.8639366e-001  3.0631781e-001  8.3820031e-001  3.3381391e-001  4.3628463e-001  2.1047799e-001  6.5334996e-001  3.8592151e-001
  1.1457492e+000  1.1958698e+000  1.9456643e+000  1.2933856e+000  1.7047900e+000  1.4027553e+000  1.6698227e+000  1.5584478e+000
  2.6895932e-001  2.5454786e-001  4.8018974e-001  2.4535401e-001  1.2622488e+000  1.1677122e+000  1.1879144e+000  1.1812926e+000
  1.1604126e+000  9.5236339e-001  1.5464539e+000  1.1064223e+000  9.5105834e-001  6.3652729e-001  1.3327761e+000  8.4071629e-001
  1.1090789e+000  7.6947431e-001  1.5056136e+000  8.6945792e-001  1.5789831e+000  9.3887372e-001  1.5697523e+000  1.4781950e+000
  6.4452379e-001  7.1918022e-001  7.6700161e-001  6.3100554e-001  1.0889701e+000  9.4401792e-001  1.4952508e+000  9.4230274e-001
  1.4550756e+000  1.2046816e+000  2.0025243e+000  1.3439445e+000  1.6728999e+000  1.3846975e+000  1.6620946e+000  1.5380140e+000
  6.9262733e-001  9.1038774e-001  1.1890910e+000  8.6776841e-001  1.9338343e+000  1.4058846e+000  1.6856087e+000  1.8283315e+000
  6.4281806e-001  5.4148829e-001  8.9451202e-001  7.7754678e-001  1.2272887e+000  5.4825429e-001  1.2219176e+000  1.1492288e+000
  6.6242144e-001  6.7014482e-001  1.0368837e+000  7.0006700e-001  9.3547312e-001  5.5313322e-001  7.7806315e-001  9.0893801e-001
  4.1467539e-001  3.8856241e-001  6.5482558e-001  4.3692883e-001  1.2755608e+000  1.1165452e+000  1.0898763e+000  1.2057594e+000
  1.1052083e+000  1.0150129e+000  1.4698392e+000  1.1751382e+000  1.3724958e+000  1.1071630e+000  9.0934536e-001  1.3451401e+000
  7.1414222e-001  4.4996988e-001  1.0100906e+000  4.4582035e-001  6.8459468e-001  3.7788335e-001  6.1912120e-001  6.6475587e-001
  6.9360625e-001  6.9944287e-001  1.1296498e+000  6.8537944e-001  7.1951259e-001  4.2455410e-001  1.0287151e+000  6.4244585e-001
  1.0621355e+000  1.0178829e+000  1.6279244e+000  9.9579916e-001  1.2852425e+000  7.8112173e-001  1.0469637e+000  1.2564566e+000
  1.1904268e+000  1.1477928e+000  1.4100178e+000  1.2292500e+000  1.3548714e+000  9.0369794e-001  1.0066402e+000  1.3137508e+000
  1.0203754e+000  4.8434932e-001  1.2180142e+000  6.3315980e-001  1.7538707e+000  7.7342929e-001  1.2307236e+000  1.7573471e+000
  6.2349927e-001  3.9960267e-001  8.9337661e-001  5.9316415e-001  1.4661078e+000  6.5731905e-001  1.3266493e+000  1.4070915e+000
  8.0696998e-001  8.8110845e-001  1.0875384e+000  9.4110948e-001  5.3368193e-001  6.0745080e-001  8.7205425e-001  4.2888836e-001
  5.2923683e-001  4.7341269e-001  5.1649993e-001  4.0994594e-001  1.2343459e+000  9.5054811e-001  1.4687703e+000  1.1231540e+000
  7.5399662e-001  8.2888067e-001  1.4229234e+000  9.4377978e-001  1.0748385e+000  5.5058733e-001  1.1656086e+000  1.0040702e+000
  1.0304944e+000  6.7556354e-001  1.3260465e+000  7.2749379e-001  2.5385705e-001  4.3083968e-001  5.4037304e-001  1.7060048e-001
  1.3663666e+000  1.1749123e+000  1.8658922e+000  1.1790957e+000  1.2639019e+000  8.3178037e-001  1.5033709e+000  1.1578883e+000
  7.2038765e-001  4.4305479e-001  1.0690350e+000  5.0043805e-001  8.0742971e-001  6.1669403e-001  7.4190756e-001  7.6207117e-001
  9.9837038e-001  7.1407716e-001  1.0372955e+000  6.8303803e-001  1.7314647e+000  1.3566601e+000  1.5921895e+000  1.6222557e+000
  7.5744826e-001  5.8709603e-001  9.3410606e-001  6.2112908e-001  9.9615547e-001  9.2064501e-001  1.0938449e+000  9.0139327e-001
  1.1337242e+000  8.0565748e-001  1.6375405e+000  1.0451510e+000  1.1626914e+000  4.7624485e-001  9.9387403e-001  1.1620684e+000
  7.3975106e-001  9.4959133e-001  1.2320981e+000  1.0357850e+000  1.0228104e+000  9.3599795e-001  9.8737129e-001  9.4423026e-001
  5.0343253e-001  5.9939825e-001  1.0576115e+000  6.0396002e-001  9.6454825e-001  4.9838101e-001  3.0852258e-001  1.0251206e+000
  1.3030928e+000  1.2682552e+000  1.5793157e+000  1.3925154e+000  1.5845695e+000  1.1770300e+000  1.4520441e+000  1.4743589e+000
  9.6535498e-001  8.8647285e-001  1.2406906e+000  8.3240345e-001  8.0306866e-001  8.5122768e-001  1.0739915e+000  6.9402432e-001
  1.1746105e+000  9.8736247e-001  1.2482320e+000  1.1071439e+000  1.2796214e+000  1.0976927e+000  1.1366704e+000  1.2077708e+000
  8.4596006e-001  8.6600265e-001  1.4258766e+000  9.3034181e-001  9.0046069e-001  4.8325287e-001  3.1010334e-001  9.5383959e-001
  6.3482722e-001  7.8515413e-001  1.0218817e+000  8.6387123e-001  1.1471361e+000  8.6726161e-001  1.5467960e+000  9.9453829e-001
  7.5191227e-001  4.2212326e-001  7.5516504e-001  5.6708113e-001  6.2836779e-001  5.7619425e-001  1.2603216e+000  4.8067985e-001
  6.7815663e-001  5.4781757e-001  9.3905938e-001  4.8870111e-001  1.2998453e+000  1.1441246e+000  1.3186885e+000  1.1603902e+000
  6.9988687e-001  1.1180136e+000  1.2822053e+000  1.1097543e+000  9.1731372e-001  4.3456093e-001  8.1356586e-001  8.7757298e-001
  7.8104686e-001  8.6306349e-001  1.4129078e+000  7.5569769e-001  8.7947351e-001  3.7009533e-001  6.0479818e-001  8.9277051e-001
  8.0509842e-001  8.4127787e-001  1.3694123e+000  9.9874657e-001  1.3552915e+000  7.1970006e-001  1.3250866e+000  1.2784169e+000
  7.5662329e-001  5.5185532e-001  7.9093953e-001  6.7701519e-001  9.6564105e-001  6.0296436e-001  1.4450417e+000  8.2238415e-001
  9.7682342e-001  1.0696483e+000  1.6435018e+000  1.1827040e+000  1.0171170e+000  8.5112512e-001  1.0994580e+000  9.4107189e-001
  8.5636086e-001  7.7419086e-001  9.5431652e-001  6.7526068e-001  1.3794054e+000  6.5735788e-001  7.6477800e-001  1.4005577e+000
  8.6955169e-001  4.7909820e-001  1.0542041e+000  4.9910674e-001  1.5516824e+000  1.2986857e+000  1.3252954e+000  1.4480860e+000
  5.7745413e-001  4.2709823e-001  8.6575504e-001  5.4638526e-001  2.0874022e+000  1.5015193e+000  1.9683208e+000  1.9623300e+000
  3.3242746e-001  2.6295617e-001  5.0468585e-001  3.1184454e-001  5.0785901e-001  4.3486528e-001  8.7642075e-001  4.1198199e-001
  8.1300982e-001  3.2754423e-001  6.4250770e-001  3.6764184e-001  1.2377229e+000  9.4769414e-001  1.5807062e+000  1.1042867e+000
  8.2942485e-001  8.8947768e-001  1.3240339e+000  9.5880299e-001  1.8250330e+000  1.4255719e+000  1.9096901e+000  1.6596159e+000
  6.1831776e-001  6.6959736e-001  1.1476762e+000  8.3729244e-001  1.5807542e+000  7.9510346e-001  8.8313404e-001  1.6038575e+000
  1.0637467e+000  8.6957105e-001  1.2983026e+000  1.0392753e+000  6.7924868e-001  4.7494813e-001  3.5893249e-001  6.8939845e-001
  6.6790389e-001  3.8271628e-001  8.7855731e-001  5.5163910e-001  1.5879324e+000  1.1857250e+000  1.4334387e+000  1.4838377e+000
  8.8209955e-001  8.1434100e-001  1.6425410e+000  9.7964619e-001  1.4413283e+000  1.0384298e+000  1.4216595e+000  1.3622950e+000
  6.9862717e-001  8.3096240e-001  1.0187400e+000  8.8422252e-001  1.6313752e+000  1.2421318e+000  1.8019367e+000  1.4871478e+000
  1.0188868e+000  6.7900823e-001  1.4681901e+000  9.0823218e-001  8.5807586e-001  6.3606134e-001  7.3381850e-001  7.9503698e-001
  4.9842876e-001  2.8941092e-001  6.4117347e-001  3.3868656e-001  1.3336298e+000  8.2533259e-001  1.2732142e+000  1.2657042e+000
  5.8967092e-001  2.5906778e-001  9.5034388e-001  3.3897996e-001  1.5088393e+000  1.2036580e+000  1.6960186e+000  1.3463979e+000
  7.2097456e-001  9.0042722e-001  1.2547659e+000  1.0573017e+000  1.2150758e+000  9.3737793e-001  1.0904569e+000  1.1515538e+000
  4.8847857e-001  5.6875133e-001  9.5316976e-001  6.7589476e-001  1.5345341e+000  1.2338016e+000  1.4933668e+000  1.4249685e+000
  1.0567081e+000  1.1205969e+000  1.8587335e+000  1.1740606e+000  1.1154934e+000  9.4399906e-001  1.1601157e+000  1.0173465e+000
  3.9581850e-001  6.2415849e-001  6.5373720e-001  5.2456601e-001  1.5173088e+000  1.1964833e+000  2.0296365e+000  1.3003595e+000
  9.4208610e-001  1.1838746e+000  1.4363818e+000  1.1740753e+000  9.7476169e-001  7.8811175e-001  6.1080884e-001  9.7968529e-001
  1.1730104e+000  1.1675998e+000  1.9461037e+000  1.3160083e+000  1.2780072e+000  1.0363548e+000  1.1582057e+000  1.1989756e+000
  1.4636770e+000  1.2143108e+000  2.0321785e+000  1.2634477e+000  1.1920036e+000  5.0209937e-001  9.5954617e-001  1.1557106e+000
  1.2657685e+000  1.2204081e+000  1.3903305e+000  1.1811997e+000  2.0380599e+000  1.5130837e+000  1.6751096e+000  1.9419191e+000
  1.0846149e+000  8.6986679e-001  1.3086006e+000  1.0083584e+000  2.8216985e-001  5.2214453e-001  6.2236179e-001  1.8276647e-001
  1.3377502e+000  1.2853622e+000  1.7052871e+000  1.4101602e+000  1.5517925e+000  1.1763828e+000  1.8143469e+000  1.3975453e+000
  1.2162833e+000  8.1274080e-001  1.4669412e+000  1.0103434e+000  1.4333936e+000  7.4658386e-001  1.0988462e+000  1.4191187e+000
  3.1256702e-001  3.6359033e-001  6.7480160e-001  3.6036148e-001  1.2107979e+000  1.0118588e+000  1.0850537e+000  1.1367616e+000
  6.3009947e-001  6.0237150e-001  1.2857128e+000  7.4393077e-001  1.3919799e+000  1.0219239e+000  1.1193232e+000  1.3443973e+000
  1.1753252e+000  8.9100797e-001  1.6207091e+000  9.2907347e-001  8.1462411e-001  5.2902853e-001  1.3842676e+000  6.7217144e-001
  9.3988215e-001  7.7807024e-001  1.1291051e+000  8.8403248e-001  4.6092222e-001  2.3977111e-001  4.5494419e-001  4.3409496e-001
  4.1401761e-001  3.5503719e-001  7.9403877e-001  4.6522639e-001  5.8998463e-001  3.0718537e-001  6.7650935e-001  5.3601394e-001
  7.6614685e-001  5.4015501e-001  1.1198057e+000  7.8046332e-001  1.5688340e+000  1.2904999e+000  1.6341918e+000  1.4302901e+000
  1.1786482e+000  1.0098197e+000  1.6893646e+000  1.0055977e+000  1.4203585e+000  6.5955068e-001  1.2413566e+000  1.3838571e+000
  6.6444766e-001  6.5150707e-001  9.8074214e-001  7.5000644e-001  9.8495109e-001  5.1519935e-001  5.4449193e-001  1.0211501e+000
  8.9624544e-001  5.1543017e-001  8.6180027e-001  6.9697701e-001  1.4604890e+000  8.8192981e-001  8.1265451e-001  1.4672691e+000
  8.3832461e-001  7.6302788e-001  1.3586444e+000  9.6066762e-001  9.0853424e-001  8.8712393e-001  9.1754637e-001  8.0952848e-001
  6.0288310e-001  1.8238866e-001  7.1219099e-001  2.5935864e-001  1.1263675e+000  8.7953334e-001  1.2177055e+000  1.0024235e+000
  8.1597162e-001  5.5883217e-001  1.0793381e+000  5.5894395e-001  5.0319831e-001  2.4128619e-001  5.2996413e-001  4.7916094e-001
  1.1725153e+000  1.1732967e+000  1.5402469e+000  1.2997567e+000  1.3414069e+000  1.0753177e+000  1.9267689e+000  1.1396323e+000
  5.9050449e-001  2.6340070e-001  4.1875278e-001  3.0399707e-001  1.5992661e+000  1.0937246e+000  8.1938936e-001  1.6085365e+000
  9.5158282e-001  4.6384036e-001  1.1776489e+000  6.3408949e-001  1.2572008e+000  1.0751006e+000  1.2929167e+000  1.1308009e+000
  9.1794765e-001  6.4799715e-001  1.3854900e+000  8.2742397e-001  7.6749603e-001  4.6093306e-001  7.6911455e-001  7.2008255e-001
  6.4886016e-001  5.8793180e-001  1.2059665e+000  5.4549546e-001  6.8547436e-001  3.7261163e-001  1.0066579e+000  6.1009592e-001
  1.0233809e+000  7.5774117e-001  1.0391535e+000  9.1593736e-001  8.7320910e-001  7.1522463e-001  1.4237747e+000  7.2769293e-001
  8.9757561e-001  1.0252253e+000  1.1635680e+000  1.0341022e+000  1.4757939e+000  1.2363804e+000  1.3793725e+000  1.3555334e+000
  7.5257431e-001  6.3219638e-001  1.3112470e+000  6.1057630e-001  1.6143002e+000  1.2294067e+000  1.5217378e+000  1.5088173e+000
  5.0634751e-001  7.1093350e-001  8.9730046e-001  7.4588204e-001  1.1106480e+000  9.8620424e-001  1.0889500e+000  1.0036171e+000
  4.9445776e-001  2.7907950e-001  4.3486946e-001  2.8915307e-001  4.2693888e-001  3.5562878e-001  6.5486044e-001  3.5561387e-001
  1.2724454e+000  1.2483330e+000  1.5845783e+000  1.3110778e+000  1.6006927e+000  1.0983292e+000  1.3951431e+000  1.5178409e+000
  6.8638387e-001  9.8454193e-001  1.2999301e+000  9.7294308e-001  1.3131828e+000  7.7771129e-001  1.0861141e+000  1.2521934e+000
  9.5860533e-001  8.3780822e-001  1.1744340e+000  9.0829829e-001  1.0869295e+000  5.8425748e-001  5.3097769e-001  1.1157520e+000
  6.8694553e-001  6.3539028e-001  1.4148313e+000  8.6336219e-001  1.5320625e+000  9.0509980e-001  1.4034818e+000  1.4557503e+000
  7.6069214e-001  9.3038406e-001  1.3326530e+000  8.9497754e-001  1.3085459e+000  5.6864312e-001  8.8013635e-001  1.3242363e+000
  6.8370319e-001  4.4753073e-001  1.1118984e+000  6.6219557e-001  1.1780836e+000  1.0715968e+000  1.6309425e+000  1.0196969e+000
  7.6087998e-001  5.5004872e-001  1.3261108e+000  6.9607578e-001  1.3277489e+000  9.6450941e-001  1.5238822e+000  1.2182743e+000
  6.1146901e-001  6.9733726e-001  9.5652070e-001  8.1777278e-001  2.0283754e+000  1.4819099e+000  2.0271326e+000  1.8831222e+000
  1.2933893e+000  8.7206273e-001  1.6209823e+000  1.0899242e+000  2.0309655e+000  1.3712932e+000  1.9252353e+000  1.9186145e+000
  6.4438233e-001  3.1489998e-001  6.9088309e-001  3.2876464e-001  1.7123046e+000  1.3419783e+000  1.8812406e+000  1.5701554e+000
  9.3832093e-001  4.4418170e-001  1.0075795e+000  4.8433208e-001  1.1747545e+000  6.8625212e-001  1.1118583e+000  1.1317197e+000
  7.3777829e-001  9.7696747e-001  1.2333176e+000  1.0814797e+000  1.6097138e+000  1.1963144e+000  1.8617612e+000  1.4786588e+000
  1.0515124e+000  1.0646984e+000  1.3049776e+000  1.0327669e+000  1.5945601e+000  1.0067907e+000  1.5033679e+000  1.5061273e+000
  1.0523847e+000  1.0539321e+000  1.8086089e+000  1.1064339e+000  1.0135150e+000  9.5161610e-001  1.4571768e+000  8.4477163e-001
  7.5879447e-001  6.7017326e-001  1.3521423e+000  6.6872320e-001  1.5329242e+000  1.3242251e+000  1.6954486e+000  1.3725857e+000
  9.9199340e-001  1.2753764e+000  1.6997927e+000  1.3476121e+000  8.9015627e-001  5.3076396e-001  8.4908577e-001  8.3535833e-001
  8.5243783e-001  8.4129586e-001  1.2503365e+000  7.3508237e-001  1.2373176e+000  9.8701025e-001  9.4305365e-001  1.1666238e+000
  4.0472961e-001  2.9804491e-001  6.8965624e-001  4.1778217e-001  1.5049439e+000  7.3490070e-001  8.6966704e-001  1.5298823e+000
  1.0278067e+000  6.3957257e-001  1.0106216e+000  8.8183319e-001  1.5303106e+000  1.2604623e+000  1.1634625e+000  1.4751204e+000
  6.0979635e-001  6.3385702e-001  9.0150880e-001  6.8454240e-001  1.3346738e+000  7.8903147e-001  6.7982871e-001  1.3416751e+000
  1.0783831e+000  8.4004017e-001  1.3971788e+000  9.7394068e-001  3.5560064e-001  3.4075471e-001  5.7135981e-001  2.8982371e-001
  7.3940945e-001  5.5380164e-001  7.5778886e-001  6.1557596e-001  1.5702849e+000  1.0271390e+000  7.4521049e-001  1.5887074e+000
  1.0872138e+000  1.0797424e+000  1.7937376e+000  1.1351213e+000  1.1880063e+000  5.1501350e-001  1.1230877e+000  1.1317538e+000
  8.7785940e-001  5.2545255e-001  1.1141884e+000  5.7360106e-001  1.3884900e+000  9.2638345e-001  1.3667177e+000  1.3196103e+000
  9.5932556e-001  9.7966065e-001  1.7985238e+000  1.0937507e+000  7.9271174e-001  5.1395225e-001  1.0982338e+000  7.0988378e-001
  7.7183217e-001  5.8971198e-001  1.3865609e+000  7.8175952e-001  7.5825215e-001  7.7457347e-001  1.4852792e+000  5.7808136e-001
  5.0442240e-001  2.0466818e-001  8.7483141e-001  2.4702664e-001  1.2333001e+000  9.1106186e-001  1.1823834e+000  1.1439653e+000
  4.4004682e-001  3.8623119e-001  6.3254749e-001  3.4103485e-001  1.4180212e+000  9.6215544e-001  1.3597799e+000  1.3501535e+000
  1.1349824e+000  7.5900541e-001  1.4292389e+000  9.4754305e-001  1.3103839e+000  8.0262065e-001  1.1701784e+000  1.2629238e+000
  1.5022513e+000  1.3187237e+000  2.0918903e+000  1.4383655e+000  7.2017505e-001  9.3199254e-001  1.3586242e+000  5.3223199e-001
  7.8628723e-001  4.0901888e-001  9.2943728e-001  4.8216115e-001  1.1270556e+000  9.6281603e-001  1.1292288e+000  1.0214602e+000
  6.8088373e-001  6.8909796e-001  1.1947113e+000  8.9767370e-001  8.0566747e-001  6.2473292e-001  1.1878234e+000  6.8494340e-001
  7.1006381e-001  9.1885824e-001  1.3705416e+000  9.5702688e-001  1.0001644e+000  5.9004378e-001  5.9419468e-001  9.8700568e-001
  1.1195604e+000  9.4833611e-001  1.3066363e+000  1.0541677e+000  8.0144055e-001  2.5952750e-001  1.0005695e+000  7.3796220e-001
  1.0846486e+000  7.3682791e-001  1.0442234e+000  9.6437576e-001  1.4863377e+000  1.2957308e+000  1.6885290e+000  1.3121537e+000
  9.6242054e-001  8.8741409e-001  1.1281054e+000  9.9314811e-001  9.7092198e-001  9.5245247e-001  1.6846457e+000  7.6298056e-001
  8.3839829e-001  6.5304343e-001  7.2205606e-001  5.9422715e-001  1.2740673e+000  9.6738150e-001  9.1270144e-001  1.2424017e+000
  1.1886677e+000  1.0848348e+000  1.6106133e+000  1.2174957e+000  1.2355730e+000  6.0254634e-001  6.0130447e-001  1.2597136e+000
  7.3599916e-001  2.0321501e-001  7.6962670e-001  2.4999746e-001  1.6990100e+000  1.1866953e+000  1.5575336e+000  1.5905402e+000
  6.6384149e-001  6.7064195e-001  9.8602171e-001  6.6627670e-001  1.0676814e+000  6.3335163e-001  4.8037227e-001  1.0898700e+000
  8.6781357e-001  9.0300272e-001  1.2102792e+000  8.7338621e-001  8.1942964e-001  6.2912592e-001  1.0342577e+000  7.1626653e-001
  8.9375557e-001  7.9600753e-001  9.1194360e-001  7.3247840e-001  1.7770101e+000  1.0283829e+000  1.3847877e+000  1.7332715e+000
  7.2181682e-001  6.6430059e-001  1.0049068e+000  6.8957112e-001  1.1206312e+000  5.3605803e-001  1.1796841e+000  1.0570325e+000
  1.3096761e+000  1.1363024e+000  1.7841279e+000  1.2659463e+000  1.0532540e+000  5.4759280e-001  9.4438346e-001  1.0330864e+000
  1.0186438e+000  5.2274578e-001  1.0038332e+000  7.4092105e-001  1.0251999e+000  5.6511468e-001  5.4073424e-001  1.0505714e+000
  7.2836323e-001  6.2134409e-001  1.2354416e+000  5.9160447e-001  1.5183725e+000  8.1718157e-001  8.1967559e-001  1.5452934e+000
  1.0588479e+000  1.1303772e+000  1.6792813e+000  1.1640008e+000  1.4067404e+000  1.0399555e+000  1.4503099e+000  1.3008908e+000
  1.0020960e+000  1.2187422e+000  1.5592793e+000  1.3015629e+000  1.4147139e+000  7.1211454e-001  1.0445912e+000  1.3971361e+000
  9.3688604e-001  7.2156967e-001  9.8100132e-001  8.7462804e-001  1.3338717e+000  1.1237987e+000  1.0166310e+000  1.2650587e+000
  8.7432487e-001  5.3540227e-001  1.1134995e+000  6.0659046e-001  1.4990874e+000  9.5540065e-001  1.3015085e+000  1.4400237e+000
  6.3178545e-001  8.5732884e-001  1.2542801e+000  8.3702855e-001  1.3576266e+000  8.9416222e-001  1.3155798e+000  1.2717824e+000
  1.3866388e+000  1.1341227e+000  1.7580333e+000  1.1961337e+000  1.1366528e+000  7.6307371e-001  1.0918692e+000  1.0944832e+000
  5.5123745e-001  6.8824057e-001  1.0108872e+000  6.7703344e-001  1.2721892e+000  6.4207272e-001  1.4231714e+000  1.1585715e+000
  1.1115495e+000  8.0390572e-001  1.3050025e+000  9.1373749e-001  1.0093206e+000  8.9953049e-001  1.2279380e+000  8.8702388e-001
  6.8844784e-001  9.6401614e-001  1.2181357e+000  8.7645369e-001  1.5566604e+000  9.1502117e-001  8.1653737e-001  1.5790536e+000
  1.1365231e+000  1.0052488e+000  1.6687518e+000  9.9650809e-001  9.8666888e-001  1.0596883e+000  1.1432270e+000  8.7140224e-001
  1.1704043e+000  9.2414468e-001  1.5834081e+000  8.6694796e-001  1.4253569e+000  8.3192753e-001  1.5140525e+000  1.3277600e+000
  6.3273761e-001  8.9873521e-001  1.1280487e+000  9.1184422e-001  8.7525911e-001  4.9895344e-001  3.4937514e-001  9.0242826e-001
  9.3940657e-001  7.4462368e-001  1.3606299e+000  9.4583335e-001  9.9432835e-001  9.5936884e-001  9.2212514e-001  9.0496766e-001
  7.3253404e-001  5.4388341e-001  7.6367614e-001  6.0078252e-001  7.1746062e-001  3.8292093e-001  6.7071382e-001  6.9475225e-001
  1.0396788e+000  1.0273045e+000  1.1771783e+000  1.0258164e+000  9.8567338e-001  9.4901585e-001  1.1500602e+000  8.7075730e-001
  7.6860243e-001  5.0076073e-001  1.2441149e+000  6.7707560e-001  7.8460673e-001  5.7702599e-001  6.2398933e-001  7.3518981e-001
  4.9956382e-001  4.7650673e-001  6.0699335e-001  4.2321616e-001  1.2461401e+000  1.0585477e+000  1.2844675e+000  1.1130302e+000
  1.4541410e+000  1.2318155e+000  2.1074729e+000  1.3913855e+000  7.8726837e-001  1.0059343e+000  1.1341571e+000  6.5000762e-001
  6.6539945e-001  6.5078359e-001  1.0205882e+000  7.2417545e-001  1.3144682e+000  1.2427805e+000  1.5615676e+000  1.1402906e+000
  5.3157716e-001  8.0008295e-001  1.0297507e+000  6.7763654e-001  1.0304569e+000  7.9420997e-001  9.9451872e-001  9.5754690e-001
  9.6794937e-001  4.9485929e-001  1.1902097e+000  6.0580691e-001  7.2427382e-001  5.9151159e-001  6.3096860e-001  6.8700915e-001
  7.9702071e-001  4.6418241e-001  5.7491908e-001  4.3125147e-001  1.0500580e+000  6.3943994e-001  1.4030044e+000  9.2835080e-001
  1.0954855e+000  9.5809550e-001  1.3026548e+000  8.3747356e-001  8.3001291e-001  8.5357593e-001  1.4752087e+000  6.5359024e-001
  1.1202327e+000  1.1089864e+000  1.2701485e+000  1.0723215e+000  1.3189949e+000  6.5384450e-001  6.2463063e-001  1.3639770e+000
  8.1626481e-001  3.1203065e-001  7.7829597e-001  4.2455711e-001  1.6338964e+000  1.1062359e+000  1.4117302e+000  1.5661199e+000
  8.8845230e-001  9.8990673e-001  1.1310661e+000  8.7129241e-001  1.7627934e+000  8.7034348e-001  1.1067412e+000  1.7683303e+000
  1.1562417e+000  1.1774519e+000  1.4210918e+000  1.2860016e+000  1.0930041e+000  1.1008610e+000  1.6056036e+000  9.1264608e-001
  8.3112016e-001  9.0883869e-001  1.1659241e+000  9.2371024e-001  1.5093325e+000  7.1174253e-001  1.2243993e+000  1.4924797e+000
  7.2215613e-001  4.2195334e-001  8.3397525e-001  4.1079643e-001  5.6453410e-001  3.5544803e-001  3.9002727e-001  5.5182447e-001
  9.1634984e-001  1.0883009e+000  1.4708317e+000  1.0471096e+000  1.6027672e+000  1.0464725e+000  9.0697781e-001  1.6099332e+000
  1.2490720e+000  1.2406244e+000  1.9300963e+000  1.3538207e+000  8.2930921e-001  3.3496346e-001  7.8264762e-001  7.9311332e-001
  9.7877950e-001  1.1668910e+000  1.6366281e+000  1.1739286e+000  1.3388671e+000  6.7328803e-001  5.0780009e-001  1.4036055e+000
  7.8221297e-001  1.0643914e+000  1.4204436e+000  1.0729661e+000  8.7757685e-001  5.3972482e-001  8.6275710e-001  8.0665375e-001
  1.0551061e+000  1.1932986e+000  1.5910621e+000  1.2375728e+000  1.2408564e+000  7.8789966e-001  6.2601658e-001  1.2558201e+000
  7.5153025e-001  6.7731316e-001  8.4085379e-001  5.9811612e-001  1.3761012e+000  8.3580374e-001  7.7662899e-001  1.3815752e+000
  8.2807939e-001  7.3208018e-001  1.3964256e+000  7.8132958e-001  9.7584683e-001  6.9673763e-001  1.1534258e+000  8.9544896e-001
  7.3243923e-001  8.0710817e-001  1.2370267e+000  7.4863040e-001  8.5254955e-001  8.9365087e-001  1.4985505e+000  6.7594047e-001
  9.5018895e-001  1.0649675e+000  1.5441616e+000  1.0237684e+000  1.3138421e+000  1.1316921e+000  1.1772073e+000  1.2151151e+000
  8.1378853e-001  8.0682271e-001  8.8715151e-001  7.5287379e-001  1.5059135e+000  9.9533547e-001  1.3187015e+000  1.4375518e+000
  1.3688113e+000  1.3119960e+000  1.6572990e+000  1.3838848e+000  1.6702905e+000  1.2859033e+000  1.6806727e+000  1.5351841e+000
  1.3864676e+000  1.2699001e+000  2.1417286e+000  1.4199337e+000  1.3172827e+000  1.0829788e+000  1.0981588e+000  1.2504316e+000
  4.2166879e-001  5.8360793e-001  7.2172655e-001  5.9682342e-001  1.4947965e+000  6.5148028e-001  1.1732260e+000  1.4739318e+000
  5.3559464e-001  6.2329053e-001  1.0733276e+000  7.0734891e-001  1.4993894e+000  1.1811466e+000  1.6649115e+000  1.3629006e+000
  6.8217112e-001  3.3402961e-001  5.1860333e-001  3.3339446e-001  1.1296063e+000  6.4768821e-001  1.0316699e+000  1.0612708e+000
  9.9946565e-001  1.1188341e+000  1.4617975e+000  1.1941693e+000  1.7993615e+000  1.0531080e+000  1.6023164e+000  1.7152665e+000
  9.2335121e-001  8.8468483e-001  1.6597706e+000  1.0305208e+000  8.7988125e-001  5.2614527e-001  1.0230491e+000  8.2266172e-001
  8.9149889e-001  9.8221607e-001  1.3311227e+000  1.1131049e+000  1.1595754e+000  5.9368553e-001  1.1840229e+000  1.0727979e+000
  1.0579922e+000  8.1351989e-001  1.6756196e+000  1.0369113e+000  1.1843878e+000  6.4653967e-001  1.3821080e+000  1.0776384e+000
  1.2206627e+000  1.1262097e+000  1.5790239e+000  1.2352402e+000  1.6744984e+000  1.1247400e+000  1.7807069e+000  1.5313808e+000
  7.5705253e-001  4.7600069e-001  9.5419127e-001  6.9146625e-001  1.5115636e+000  1.0633582e+000  1.2817309e+000  1.4309523e+000
  3.3335823e-001  2.9590894e-001  5.6307270e-001  4.2560468e-001  8.8107390e-001  5.2001954e-001  1.1299175e+000  7.8971062e-001
  5.1532567e-001  5.0007633e-001  9.4746663e-001  5.8242255e-001  1.0492159e+000  5.5628001e-001  1.0760520e+000  1.0060737e+000
  1.1621961e+000  9.7387842e-001  1.3192970e+000  9.3217062e-001  1.4682313e+000  1.0695849e+000  1.2412912e+000  1.3888856e+000
  6.3858710e-001  8.9786856e-001  1.2368846e+000  8.2991038e-001  6.5968245e-001  4.3334883e-001  4.9998283e-001  6.4757832e-001
  7.4438335e-001  8.9520559e-001  1.4750231e+000  7.8635078e-001  6.4216523e-001  3.6726623e-001  4.5388665e-001  6.2821954e-001
  9.9732573e-001  7.0276912e-001  1.4381490e+000  7.9020167e-001  1.6219570e+000  7.1664603e-001  9.6183563e-001  1.6451878e+000
  8.1836850e-001  6.2005274e-001  1.1568679e+000  8.3052990e-001  5.4812422e-001  5.0154948e-001  8.0282776e-001  4.6775050e-001
  6.5813570e-001  7.7643204e-001  9.0892892e-001  7.4549789e-001  1.1190290e+000  8.7800869e-001  9.0564791e-001  1.0910810e+000
  3.7367624e-001  5.6064376e-001  5.6032499e-001  4.7006989e-001  1.0267537e+000  7.2959102e-001  7.7860530e-001  1.0073418e+000
  1.0905810e+000  7.1668226e-001  1.3579883e+000  8.7611798e-001  1.5723071e+000  1.1576319e+000  1.5171856e+000  1.4772759e+000
  9.1018081e-001  8.3639431e-001  1.2033569e+000  7.5239159e-001  1.1857659e+000  8.9800480e-001  8.1620907e-001  1.1751382e+000
  7.2268825e-001  7.2559857e-001  8.1589957e-001  6.3862568e-001  1.5803253e+000  1.0260523e+000  1.3660162e+000  1.5056919e+000
  7.2035925e-001  6.4396440e-001  9.7250533e-001  6.3179082e-001  1.1694443e+000  8.8091679e-001  1.1319487e+000  1.1085124e+000
  1.0444804e+000  1.0427594e+000  1.4330513e+000  9.5514292e-001  1.0215004e+000  4.5311695e-001  8.2248799e-001  9.9213772e-001
  4.8890989e-001  3.3549915e-001  9.0953848e-001  4.9569800e-001  1.5118635e+000  7.0087269e-001  6.7394434e-001  1.5682681e+000
  1.1921567e+000  1.2337365e+000  1.7240634e+000  1.3530634e+000  1.4508118e+000  9.6821316e-001  1.4387542e+000  1.3531523e+000
  1.0561301e+000  7.6069629e-001  1.0745020e+000  9.2226330e-001  9.9614568e-001  1.0755362e+000  1.4230855e+000  8.2012862e-001
  6.5236361e-001  4.0955390e-001  9.0297318e-001  4.0002434e-001  1.0853998e+000  7.7023472e-001  1.1033693e+000  9.8209230e-001
  6.3796117e-001  8.9136677e-001  1.0872917e+000  9.7611748e-001  1.2189141e+000  1.1157634e+000  1.2137820e+000  1.1199425e+000
  5.5908275e-001  3.9204395e-001  9.2863085e-001  4.7489883e-001  1.5727650e+000  1.2456802e+000  1.8830231e+000  1.4134814e+000
  7.1887466e-001  2.3667288e-001  5.1478027e-001  2.7619824e-001  7.4250765e-001  3.6126370e-001  4.8860905e-001  7.5414739e-001
  9.1760056e-001  6.0606483e-001  1.2462920e+000  8.6468301e-001  1.2153677e+000  5.5162174e-001  1.1153262e+000  1.1806588e+000
  9.8708679e-001  1.2176074e+000  1.9249528e+000  1.2607796e+000  1.6709689e+000  1.0695936e+000  1.0419810e+000  1.6538757e+000
  4.6345773e-001  6.3280505e-001  6.7324139e-001  5.2444185e-001  1.6704380e+000  1.1885863e+000  1.7405862e+000  1.5367916e+000
  8.5019188e-001  6.9518312e-001  1.1696281e+000  8.0010873e-001  1.4173426e+000  1.2627558e+000  1.5760786e+000  1.2561707e+000
  6.5551870e-001  5.7605559e-001  1.0551654e+000  5.6242851e-001  1.3256281e+000  1.1365145e+000  1.3868834e+000  1.2130460e+000
  4.6229081e-001  5.7670919e-001  7.7262562e-001  6.4059860e-001  1.4111724e+000  1.1476490e+000  1.7805954e+000  1.2367990e+000
  7.0231837e-001  8.6959320e-001  1.2579467e+000  1.0262011e+000  1.6327543e+000  9.7190020e-001  1.5715536e+000  1.5425048e+000
  1.3146632e+000  1.0623354e+000  1.7006087e+000  1.1198545e+000  9.7196405e-001  8.6951094e-001  1.1632693e+000  8.5253498e-001
  5.9205926e-001  6.3361510e-001  9.0378477e-001  7.2941196e-001  1.1384463e+000  5.6482152e-001  7.5052444e-001  1.1221506e+000
  8.6960939e-001  8.4533448e-001  1.2968450e+000  1.0113407e+000  1.2333396e+000  7.1918460e-001  1.0518349e+000  1.2024821e+000
  6.3419936e-001  6.6624434e-001  1.2517450e+000  8.0291503e-001  1.2960430e+000  7.1913392e-001  8.5064757e-001  1.2787178e+000
  8.6482426e-001  6.5186437e-001  1.0762060e+000  9.0007770e-001  1.3417619e+000  9.9335316e-001  1.1609388e+000  1.2880954e+000
  8.0922743e-001  5.9009027e-001  1.4052931e+000  7.4444626e-001  9.5826835e-001  1.0039524e+000  1.3252654e+000  8.1799722e-001
  9.6778100e-001  6.1140323e-001  9.9966618e-001  6.7223668e-001  1.6972305e+000  7.6062963e-001  1.2072794e+000  1.7000066e+000
  1.1120593e+000  1.1099973e+000  1.9192311e+000  1.2010625e+000  1.2513474e+000  8.9801299e-001  1.2769705e+000  1.1560320e+000
  7.0525557e-001  6.7178688e-001  1.2980085e+000  8.6975083e-001  1.6556162e+000  1.2261034e+000  1.6319204e+000  1.5277664e+000
  7.2502975e-001  6.3503662e-001  9.8930697e-001  5.5812329e-001  1.3411748e+000  6.2722034e-001  6.2577149e-001  1.3771558e+000
  5.0230310e-001  2.8321718e-001  8.5487400e-001  2.8568678e-001  1.8736096e+000  1.1632490e+000  1.3150790e+000  1.8446312e+000
  9.9998020e-001  6.3710979e-001  1.3276271e+000  7.6413192e-001  1.3068792e+000  1.0992704e+000  1.4447388e+000  1.1892823e+000
  7.1876599e-001  7.9116478e-001  9.4099922e-001  7.7553685e-001  9.9947271e-001  9.4305860e-001  1.3018768e+000  8.5658599e-001
  7.7128053e-001  2.6790119e-001  9.1310842e-001  3.5457075e-001  2.0497923e+000  1.4225345e+000  1.9386190e+000  1.9288853e+000
  9.9878043e-001  1.1031948e+000  1.3989465e+000  1.0719341e+000  7.3970295e-001  4.4772453e-001  6.9858882e-001  7.1363665e-001
  1.2532423e+000  9.8312845e-001  1.7809723e+000  1.0375729e+000  5.7802015e-001  3.5102547e-001  2.2165723e-001  6.0088582e-001
  3.8961558e-001  5.6058914e-001  7.0074919e-001  5.3347278e-001  1.5629842e+000  1.2118390e+000  1.7434793e+000  1.4020959e+000
  7.3500834e-001  6.2250892e-001  9.8531861e-001  6.2623933e-001  1.3770096e+000  6.0774308e-001  1.0407493e+000  1.3786122e+000
  3.9624075e-001  3.5373634e-001  9.0173816e-001  3.4973425e-001  9.8113090e-001  4.5759816e-001  9.1232959e-001  9.3966131e-001
  9.7086584e-001  6.0466043e-001  1.0146682e+000  6.1508831e-001  8.5736374e-001  5.2035415e-001  3.1407418e-001  9.1002188e-001
  6.0784492e-001  2.7354598e-001  1.0287777e+000  4.2220085e-001  7.5451248e-001  4.0889835e-001  5.2642183e-001  7.3120510e-001
  8.6034364e-001  5.5466009e-001  1.0228358e+000  6.2839256e-001  1.7690087e+000  1.3067426e+000  1.2031460e+000  1.7308972e+000
  6.2416620e-001  6.5731594e-001  1.1853308e+000  8.1050535e-001  1.2220161e+000  9.6913642e-001  1.6018460e+000  1.0703063e+000
  9.2232533e-001  9.2847895e-001  1.5155125e+000  9.4431786e-001  7.7406380e-001  7.0112874e-001  8.5975808e-001  7.0495332e-001
  7.2097740e-001  5.7547240e-001  9.9768722e-001  7.8224968e-001  1.4480553e+000  9.3554788e-001  1.3808064e+000  1.3811073e+000
  1.1805425e+000  9.9157988e-001  1.6853594e+000  1.1670703e+000  1.1055675e+000  4.2538614e-001  7.8932145e-001  1.1263055e+000
  1.0428012e+000  1.0179785e+000  1.0805958e+000  9.1298842e-001  1.1120004e+000  6.5949666e-001  7.3177257e-001  1.1048344e+000
  1.1184393e+000  9.2512282e-001  1.6338839e+000  9.5774433e-001  1.2794651e+000  1.1591777e+000  1.5582772e+000  1.1196662e+000
  8.5132057e-001  1.0756644e+000  1.6809219e+000  1.1793486e+000  1.5077112e+000  1.2019324e+000  1.8997722e+000  1.3113775e+000
  7.6239093e-001  8.4010954e-001  1.0083604e+000  8.3683998e-001  4.8729168e-001  2.3692099e-001  2.3524855e-001  4.8568850e-001
  1.0906886e+000  8.6541025e-001  1.1507673e+000  9.5732830e-001  1.3892592e+000  8.2928748e-001  1.0371295e+000  1.3647230e+000
  5.5592118e-001  4.1330650e-001  6.4580286e-001  5.9709289e-001  8.1012401e-001  4.5642471e-001  1.1412635e+000  7.1431391e-001
  9.4278684e-001  8.7073852e-001  1.2249250e+000  8.6910725e-001  1.1812146e+000  6.8606034e-001  6.7924421e-001  1.1672156e+000
  5.4578565e-001  6.4443121e-001  8.3086593e-001  7.2064241e-001  1.7762897e+000  1.4074959e+000  1.9262430e+000  1.6073359e+000
  1.0272473e+000  6.9780513e-001  1.1050613e+000  9.1774980e-001  1.4495242e+000  1.2811196e+000  1.5546928e+000  1.2902736e+000
  4.5415180e-001  2.7937928e-001  7.4872397e-001  4.0733247e-001  1.7297283e+000  1.0891739e+000  1.2847030e+000  1.6815774e+000
  7.5970484e-001  6.7633757e-001  9.2757547e-001  6.3200394e-001  2.4946477e-001  1.0659911e-001  2.3843938e-001  2.3911548e-001
  7.1808610e-001  2.8146520e-001  6.3604624e-001  3.7631364e-001  8.2922133e-001  5.2987836e-001  4.2937699e-001  8.5941172e-001
  7.6087887e-001  8.9456930e-001  1.3667586e+000  7.5366274e-001  1.4782526e+000  1.1199906e+000  9.9201149e-001  1.4386097e+000
  7.9816820e-001  5.6336014e-001  1.2396378e+000  7.2537178e-001  7.4284886e-001  8.9046204e-001  9.1521236e-001  6.2999151e-001
  8.3950042e-001  5.1185490e-001  9.1336877e-001  4.9569768e-001  1.4314695e+000  1.1630039e+000  1.8451085e+000  1.2324969e+000
  8.4119012e-001  5.7320012e-001  8.0243194e-001  5.7740289e-001  1.2459589e+000  4.7289516e-001  1.0194553e+000  1.2444801e+000
  7.5195918e-001  6.0255206e-001  1.2353685e+000  5.5422282e-001  1.3546346e+000  9.2080246e-001  1.4187385e+000  1.2530646e+000
  9.9744888e-001  6.6265408e-001  1.3790852e+000  6.9536782e-001  1.2518960e+000  1.0461547e+000  1.0328519e+000  1.1810677e+000
  8.4976820e-001  1.1452911e+000  1.5592936e+000  1.2011997e+000  1.0764191e+000  6.0793006e-001  1.2900893e+000  1.0012335e+000
  1.0505264e+000  5.0911097e-001  1.2903530e+000  6.6590462e-001  1.7162636e+000  1.2750989e+000  1.4088241e+000  1.6340604e+000
  5.8661613e-001  4.5451666e-001  1.2187948e+000  6.0557185e-001  9.6714260e-001  6.1414455e-001  8.0902426e-001  9.1607423e-001
  1.2109250e+000  1.2024741e+000  1.4746037e+000  1.3322265e+000  1.1312715e+000  7.7985599e-001  1.1965010e+000  1.0555759e+000
  9.7336994e-001  6.7974817e-001  1.0418573e+000  9.1072173e-001  1.0419630e+000  5.6487832e-001  1.1169396e+000  9.8392239e-001
  1.0175763e+000  7.2379425e-001  1.4568626e+000  7.3868811e-001  1.1370035e+000  6.6380465e-001  7.4874346e-001  1.1431899e+000
  1.3581814e+000  1.1678960e+000  1.8680120e+000  1.2940502e+000  9.5628003e-001  6.2142257e-001  6.8246937e-001  9.4389862e-001
  1.1738942e+000  1.1372668e+000  1.4799770e+000  1.1294909e+000  1.0732399e+000  9.2732076e-001  1.7464012e+000  8.9297401e-001
  1.3775696e+000  1.2126151e+000  1.7437981e+000  1.3374286e+000  1.5760906e+000  1.2331959e+000  1.6453052e+000  1.4316868e+000
  9.3617035e-001  1.1726082e+000  1.7701540e+000  1.2733125e+000  1.2663820e+000  5.3733534e-001  1.0048643e+000  1.2481301e+000
  8.0515749e-001  5.9623276e-001  9.1080058e-001  7.4415911e-001  1.3985742e+000  9.5462471e-001  1.5580058e+000  1.2811403e+000
  6.0493149e-001  5.2504813e-001  9.7330896e-001  7.5681559e-001  1.6666006e+000  1.1624755e+000  1.3242445e+000  1.5997253e+000
  1.2899441e+000  1.1010208e+000  1.4537471e+000  1.1900879e+000  8.3827768e-001  9.4720299e-001  1.2743960e+000  6.8409141e-001
  1.1590439e+000  9.0817495e-001  1.3923693e+000  1.0199967e+000  1.7869138e+000  9.6789853e-001  1.5216255e+000  1.7289868e+000
  7.4143185e-001  6.0484827e-001  1.1043352e+000  7.8196034e-001  6.9341113e-001  9.2518199e-001  1.3493340e+000  5.0874583e-001
  7.9498215e-001  6.6178978e-001  8.7885680e-001  5.9325469e-001  1.1244762e+000  6.3822547e-001  1.4116894e+000  1.0069867e+000
  1.0059334e+000  1.0171313e+000  1.2333834e+000  9.2656546e-001  6.8346533e-001  4.5554097e-001  6.1786362e-001  6.6338830e-001
  7.8616359e-001  8.2735221e-001  8.9185990e-001  7.0563009e-001  3.3611990e-001  7.4757699e-002  7.2733439e-001  2.7088623e-001
  1.3227192e+000  1.0610385e+000  1.7243132e+000  1.0226236e+000  1.2080152e+000  1.0251418e+000  1.0078103e+000  1.1313803e+000
  1.0095593e+000  9.0794642e-001  1.3253371e+000  1.0434962e+000  1.2136958e+000  8.6682456e-001  1.2473455e+000  1.1313507e+000
  1.1791119e+000  8.4229363e-001  1.5520109e+000  1.0515180e+000  1.3045551e+000  7.2002593e-001  1.0968095e+000  1.2859198e+000
  1.0571554e+000  1.2997471e+000  1.7807606e+000  1.3731162e+000  7.5264814e-001  8.0953110e-001  1.5837558e+000  5.5220424e-001
  2.9522091e-001  3.4778784e-001  4.5046219e-001  3.7090284e-001  1.3093341e+000  1.1538991e+000  1.6553966e+000  1.1270974e+000
  4.5995541e-001  5.1250252e-001  7.8238362e-001  5.4267514e-001  1.2242126e+000  9.3103877e-001  1.1673224e+000  1.1270650e+000
  7.7809454e-001  4.0229279e-001  8.4152503e-001  5.0343960e-001  1.5472735e+000  9.7229478e-001  1.3670788e+000  1.4787898e+000
  1.0973546e+000  1.0066202e+000  1.5734947e+000  9.6763734e-001  1.6796370e+000  1.0384740e+000  9.1568935e-001  1.6895728e+000
  6.5678486e-001  9.0922233e-001  1.1615916e+000  9.6437468e-001  5.0396740e-001  2.7144545e-001  3.8176186e-001  4.8494376e-001
  1.1275550e+000  6.9936434e-001  1.2717785e+000  9.3699774e-001  1.1951340e+000  1.0049429e+000  9.7245649e-001  1.1496282e+000
  9.3434004e-001  5.6176306e-001  9.3541426e-001  5.9387955e-001  9.9179757e-001  1.0445252e+000  1.2656537e+000  8.3462933e-001
  5.2789104e-001  4.4687090e-001  7.3027268e-001  6.5955689e-001  1.5458378e+000  7.8241945e-001  4.8224622e-001  1.6216152e+000
  1.0751960e+000  8.6873495e-001  1.5491993e+000  8.3818224e-001  1.0565019e+000  8.0109247e-001  1.1476484e+000  9.7854374e-001
  1.0297438e+000  6.5402435e-001  1.1612016e+000  7.0089774e-001  1.4662267e+000  1.0627873e+000  1.1537313e+000  1.4198432e+000
  8.0580766e-001  8.2581803e-001  1.5886922e+000  9.3119997e-001  1.5576967e+000  7.8132483e-001  6.1780084e-001  1.6177042e+000
  6.7676455e-001  7.0501538e-001  9.0860649e-001  7.8053436e-001  1.6070364e+000  1.1811544e+000  1.7239889e+000  1.4710520e+000
  3.5478858e-001  2.2072721e-001  8.0233145e-001  3.2898628e-001  1.7128596e+000  1.3109781e+000  1.5581204e+000  1.6203766e+000
  1.0932472e+000  6.3094563e-001  1.4215394e+000  7.5454121e-001  8.1591249e-001  9.3337381e-001  1.1541986e+000  6.7213564e-001
  9.2602567e-001  9.1903835e-001  1.1925571e+000  8.0450718e-001  1.4148409e+000  9.9022038e-001  1.5101244e+000  1.3185912e+000
  1.0776154e+000  8.6016723e-001  1.4864454e+000  9.9491921e-001  5.3660500e-001  5.6305723e-001  6.1034471e-001  4.6177847e-001
  4.4833129e-001  6.7616150e-001  8.7448555e-001  5.6246640e-001  1.1482245e+000  7.5720410e-001  1.2606282e+000  1.0701912e+000
  6.7037248e-001  5.8254619e-001  1.2147726e+000  6.7719837e-001  1.2002663e+000  1.0881779e+000  1.3536387e+000  1.0797906e+000
  4.4979801e-001  4.2902020e-001  9.8036642e-001  4.0782928e-001  1.3590269e+000  7.5235749e-001  9.8849406e-001  1.3228137e+000
  5.7447085e-001  5.7551165e-001  9.0532898e-001  5.8202008e-001  1.0595462e+000  8.5254755e-001  7.9537503e-001  1.0194417e+000
  1.1695179e+000  1.1266486e+000  1.8697416e+000  1.1143872e+000  1.2561640e+000  9.3577449e-001  9.2443921e-001  1.2092342e+000
  7.2414856e-001  2.9751917e-001  6.0470970e-001  3.9930615e-001  1.1388376e+000  7.8221707e-001  8.3989292e-001  1.1063232e+000
  7.7109344e-001  6.8855200e-001  1.2612220e+000  8.6408070e-001  1.0125878e+000  9.8912448e-001  1.0350469e+000  8.9956023e-001
  9.8226632e-001  1.1649366e+000  1.7223377e+000  1.1889862e+000  1.6115135e+000  1.0235000e+000  1.6317935e+000  1.4969594e+000
  9.1973036e-001  1.0425033e+000  1.6183422e+000  1.1533123e+000  9.7948137e-001  8.7765642e-001  8.3550632e-001  9.2788644e-001
  9.8695758e-001  1.0645617e+000  1.9155219e+000  1.2157278e+000  1.3752734e+000  8.6557564e-001  6.7367707e-001  1.4038602e+000
  1.0366413e+000  6.6595655e-001  1.0478850e+000  9.0974691e-001  1.5545359e+000  9.5040523e-001  1.5806936e+000  1.4565390e+000
  1.0167681e+000  6.3085037e-001  1.2746300e+000  8.7771399e-001  1.7941528e+000  7.5237542e-001  1.1785702e+000  1.8055009e+000
  9.7180745e-001  9.1371236e-001  1.1817913e+000  9.5232067e-001  9.5145234e-001  9.0028015e-001  1.4051004e+000  7.8661416e-001
  7.0060328e-001  3.9068916e-001  9.0129811e-001  3.8153998e-001  1.3799062e+000  7.6840976e-001  1.3834023e+000  1.2850804e+000
  1.0759616e+000  9.9637218e-001  1.6952759e+000  1.1144245e+000  1.4956063e+000  9.0321260e-001  9.7410832e-001  1.4906374e+000
  4.3314459e-001  1.5630630e-001  6.6800179e-001  1.7722576e-001  5.9433415e-001  5.6450085e-001  7.6457828e-001  5.1331830e-001
  7.6024786e-001  5.7551064e-001  1.0113907e+000  5.7877750e-001  9.2414919e-001  7.2763023e-001  8.1928078e-001  8.8724621e-001
  1.1030648e+000  9.0960652e-001  1.5499478e+000  1.1017558e+000  1.1715745e+000  1.0614823e+000  1.9189971e+000  9.4662967e-001
  1.0155142e+000  1.1642185e+000  1.7274584e+000  1.2779104e+000  6.6010418e-001  5.2686248e-001  7.7704951e-001  5.8479073e-001
  1.1338305e+000  6.2352366e-001  1.3967299e+000  8.5891280e-001  1.5426227e+000  1.1808747e+000  1.8149110e+000  1.3831190e+000
  7.5536463e-001  9.0835143e-001  1.1385114e+000  9.4246042e-001  7.2092768e-001  4.4689057e-001  1.2219389e+000  5.9428720e-001
  1.1940582e+000  1.2424178e+000  1.8142789e+000  1.3631371e+000  8.5746387e-001  6.9308947e-001  1.2500771e+000  7.4130529e-001
  8.8830959e-001  5.6643519e-001  9.7161895e-001  7.6717814e-001  1.0871452e+000  5.7171365e-001  4.8028981e-001  1.1405412e+000
  7.4547904e-001  5.3708743e-001  6.7119024e-001  5.0284372e-001  1.1700203e+000  1.1047023e+000  1.5694322e+000  1.0042752e+000
  6.5403188e-001  5.3160088e-001  8.0618827e-001  5.4043863e-001  1.2341235e+000  1.0156097e+000  1.4908738e+000  1.1066892e+000
  8.0062088e-001  7.4052186e-001  1.3522420e+000  6.8580541e-001  6.4901973e-001  2.8856164e-001  8.7675360e-001  5.7489311e-001
  7.9215679e-001  2.9140476e-001  8.3638183e-001  3.3055990e-001  1.3041912e+000  9.3168251e-001  9.6499928e-001  1.2484477e+000
  5.9246006e-001  7.0909742e-001  1.1191122e+000  6.8713911e-001  1.3912090e+000  8.3711053e-001  1.1037923e+000  1.3568392e+000
  5.9080405e-001  3.2748145e-001  9.7662659e-001  4.6301361e-001  1.4553303e+000  7.8736863e-001  1.4117824e+000  1.3760075e+000
  7.2630198e-001  6.7176933e-001  9.3236156e-001  8.4042566e-001  9.5765685e-001  8.6455460e-001  1.0507982e+000  8.8007374e-001
  1.1412826e+000  1.1652562e+000  1.6092692e+000  1.1541155e+000  1.3496041e+000  6.2872398e-001  9.9153869e-001  1.3328203e+000
  9.0778791e-001  7.3864671e-001  1.4839968e+000  8.8776536e-001  9.3884634e-001  8.0421020e-001  1.0698615e+000  8.3901011e-001
  4.8313461e-001  2.3451781e-001  8.1871490e-001  3.3429672e-001  1.3408555e+000  1.1920398e+000  1.5076231e+000  1.1822972e+000
  8.4015222e-001  1.0803244e+000  1.2905976e+000  1.1126625e+000  1.6557227e+000  1.2087131e+000  1.6102082e+000  1.5563751e+000
  5.9925776e-001  7.5503930e-001  1.1400944e+000  7.8793057e-001  1.8313600e+000  1.3968310e+000  1.8776642e+000  1.6891124e+000
  4.2393529e-001  2.0844701e-001  8.4115036e-001  2.8860965e-001  1.5794146e+000  1.0749070e+000  1.8004228e+000  1.4219547e+000
  6.3988542e-001  8.5739905e-001  1.3123161e+000  8.3621716e-001  7.8390016e-001  4.3115418e-001  1.2374747e+000  6.6649999e-001
  9.3673204e-001  1.1089489e+000  1.3584295e+000  1.1815397e+000  1.3752239e+000  1.0606117e+000  1.1184329e+000  1.3080330e+000
  9.3183881e-001  1.1781040e+000  1.4450007e+000  1.2329650e+000  1.4233971e+000  9.2189125e-001  1.4900797e+000  1.3213430e+000
  7.2065713e-001  3.2404590e-001  5.8012308e-001  3.3074487e-001  1.5357917e+000  1.2181389e+000  1.9254781e+000  1.3494151e+000
  6.2464241e-001  4.0518414e-001  1.0088453e+000  6.1130141e-001  1.4244915e+000  9.3174930e-001  1.2379728e+000  1.3798949e+000
  8.5054518e-001  4.8304088e-001  1.0747726e+000  5.9148074e-001  6.0876260e-001  9.2146391e-001  1.0999559e+000  4.5339247e-001
  1.3694418e+000  1.1192216e+000  1.8584420e+000  1.2483727e+000  6.4923835e-001  5.1321549e-001  1.1239681e+000  5.2721276e-001
  7.8426816e-001  4.9238012e-001  1.1430514e+000  7.1114491e-001  7.6723205e-001  3.7892818e-001  6.6611349e-001  7.4161280e-001
  7.9986966e-001  9.3283147e-001  1.1011619e+000  8.7781302e-001  1.4444247e+000  1.1709632e+000  1.4792528e+000  1.3063217e+000
  7.5143353e-001  3.9528650e-001  6.3388860e-001  4.2935262e-001  1.5320064e+000  1.1941866e+000  1.3669871e+000  1.4478690e+000
  6.1328926e-001  7.7620661e-001  1.3113662e+000  7.0808900e-001  1.4379825e+000  1.0918616e+000  1.8070111e+000  1.2866752e+000
  9.2281182e-001  7.8416408e-001  1.2120216e+000  8.8848096e-001  1.0486300e+000  5.2810919e-001  9.2054536e-001  1.0162244e+000
  1.0096604e+000  4.8527220e-001  1.0817133e+000  6.3292145e-001  1.0693623e+000  7.6134036e-001  1.0067491e+000  1.0202708e+000
  1.1170560e+000  6.8984446e-001  1.1841076e+000  9.1500229e-001  1.0081508e+000  7.3452143e-001  8.9513370e-001  9.3507099e-001
  8.7864731e-001  7.9045206e-001  1.0580963e+000  9.1234355e-001  1.5176408e+000  1.2612290e+000  1.6084963e+000  1.4023531e+000
  8.8388184e-001  4.9544387e-001  7.9254973e-001  5.6170325e-001  6.8338576e-001  6.8768673e-001  1.2859581e+000  5.2244827e-001
  5.3589871e-001  6.8676888e-001  1.0837902e+000  6.8105674e-001  1.2435761e+000  6.1926404e-001  1.0348427e+000  1.2300429e+000
  1.3386163e+000  1.2773197e+000  1.7652565e+000  1.3837117e+000  1.4489871e+000  1.1382631e+000  1.6943814e+000  1.3283627e+000
  5.9077324e-001  4.3089568e-001  5.0984586e-001  4.3973988e-001  1.0780525e+000  5.5601751e-001  1.1426126e+000  1.0143653e+000
  6.8942184e-001  5.4134805e-001  1.3399245e+000  7.4328426e-001  4.2720884e-001  5.6268447e-001  7.8090590e-001  3.2367140e-001
  5.2920010e-001  7.0073701e-001  9.6683241e-001  5.8842079e-001  1.0144953e+000  9.9558526e-001  8.9689381e-001  9.4283378e-001
  8.6743810e-001  5.2049178e-001  7.7724976e-001  5.4557424e-001  7.8664101e-001  4.1068778e-001  4.9114533e-001  7.7532509e-001
  1.2540405e+000  1.1728000e+000  1.9902628e+000  1.3029399e+000  1.6799062e+000  9.6045449e-001  6.3884396e-001  1.7381106e+000
  7.5517510e-001  5.1164900e-001  7.8621670e-001  5.2448577e-001  7.9810319e-001  3.6034554e-001  6.6678209e-001  7.6995437e-001
  7.5793073e-001  9.3290615e-001  1.3744053e+000  9.3174955e-001  1.0616716e+000  8.4653014e-001  1.6858533e+000  8.9319980e-001
  2.7868600e-001  3.2146844e-001  5.1966278e-001  2.9407410e-001  8.6234099e-001  3.8204510e-001  7.9096935e-001  8.5106192e-001
  7.1628828e-001  5.8244336e-001  9.8869494e-001  7.2288596e-001  1.0526679e+000  8.1546615e-001  8.9708191e-001  1.0053009e+000
  1.0077156e+000  9.5719661e-001  1.3462542e+000  1.0891149e+000  1.5756134e+000  1.0084456e+000  1.2337591e+000  1.5317044e+000
  1.2673134e+000  1.2687546e+000  1.5438163e+000  1.3450639e+000  1.3129230e+000  7.4191931e-001  1.2541148e+000  1.2304659e+000
  7.0804864e-001  5.5380725e-001  9.0346159e-001  7.6331082e-001  8.7484953e-001  9.8260027e-001  1.5395200e+000  6.8751155e-001
  1.1450281e+000  6.8241843e-001  1.4218389e+000  9.2017308e-001  1.1082725e+000  6.7482137e-001  8.7738961e-001  1.0781665e+000
  3.7403146e-001  4.3676693e-001  7.7676566e-001  3.8673242e-001  1.2007954e+000  1.0921045e+000  1.0105153e+000  1.1401744e+000
  9.0538712e-001  9.4984212e-001  1.0630057e+000  8.2861147e-001  1.5519831e+000  9.7416288e-001  1.4847856e+000  1.4616077e+000
  1.4109798e+000  1.1828373e+000  1.8529302e+000  1.2794136e+000  1.1228610e+000  1.0296741e+000  1.4641609e+000  9.5627316e-001
  1.0637952e+000  6.2742711e-001  1.2226768e+000  8.7213939e-001  1.6553256e+000  9.2905862e-001  1.4757314e+000  1.5867970e+000
  9.7835101e-001  1.0849544e+000  1.8112479e+000  1.0930417e+000  8.4868598e-001  6.3086419e-001  1.2119154e+000  7.4669270e-001
  6.6146511e-001  7.2964851e-001  1.3440767e+000  7.9831899e-001  1.3722306e+000  1.0229748e+000  1.6047773e+000  1.2587326e+000
  1.2663291e+000  1.1039133e+000  1.6655498e+000  1.2018827e+000  1.0791679e+000  6.7923288e-001  5.2306094e-001  1.1093966e+000
  6.8087514e-001  7.4785355e-001  9.6987600e-001  9.1341133e-001  1.2590237e+000  7.9288517e-001  1.4586355e+000  1.1759369e+000
  1.0035388e+000  6.9929076e-001  1.1237718e+000  8.4060637e-001  1.5372658e+000  1.0836889e+000  1.5661438e+000  1.4195304e+000
  9.0446923e-001  6.2293225e-001  7.5878430e-001  5.9018184e-001  1.2087880e+000  5.0329432e-001  1.0014259e+000  1.1984049e+000
  4.6436191e-001  6.9533203e-001  9.8762551e-001  5.8597267e-001  1.4407669e+000  6.2893194e-001  1.1586485e+000  1.4210592e+000
  6.5013338e-001  7.6045789e-001  1.2166411e+000  6.7400987e-001  1.7060726e+000  1.1179905e+000  1.2868311e+000  1.6569856e+000
  7.9467675e-001  1.0455499e+000  1.5541857e+000  1.0258424e+000  7.8195581e-001  6.6467000e-001  7.8417033e-001  7.0015715e-001
  7.5921443e-001  3.0382896e-001  5.8478006e-001  3.9569157e-001  1.6847178e+000  8.0171945e-001  1.3085642e+000  1.6597745e+000
  1.0837216e+000  1.0479425e+000  1.5829549e+000  9.6889606e-001  1.1071084e+000  6.7662341e-001  6.2959379e-001  1.1057467e+000
  8.3606430e-001  6.3855760e-001  8.9559017e-001  5.8446333e-001  4.5190247e-001  6.1284172e-001  6.9915721e-001  3.6197669e-001
  7.1835415e-001  7.1240346e-001  9.3043117e-001  6.7512051e-001  1.1697727e+000  7.2501015e-001  8.6152867e-001  1.1625492e+000
  8.0663092e-001  5.6925740e-001  8.3686894e-001  6.5869865e-001  1.3319578e+000  6.9183473e-001  6.9306846e-001  1.3666755e+000
  1.3679137e+000  1.1046330e+000  1.8399299e+000  1.2154342e+000  1.2015578e+000  6.0068296e-001  7.5010686e-001  1.2251304e+000
  1.0337034e+000  7.2540938e-001  1.1063129e+000  7.1670930e-001  1.0845777e+000  9.3660054e-001  1.0387913e+000  9.9635562e-001
  8.1361324e-001  9.0745503e-001  1.5994381e+000  9.7500059e-001  1.1356612e+000  8.9505549e-001  8.9185869e-001  1.1102708e+000
  6.8891441e-001  5.8945198e-001  1.0273518e+000  6.2324270e-001  8.5113117e-001  6.8354540e-001  1.3942402e+000  7.0389496e-001
  1.0785750e+000  9.3106334e-001  1.3360794e+000  1.0242182e+000  1.0793069e+000  5.0453033e-001  4.9527767e-001  1.1296719e+000
  9.1666402e-001  8.7926135e-001  1.5046499e+000  9.4696924e-001  1.2403188e+000  6.8051776e-001  7.0350955e-001  1.2519468e+000
  7.0014292e-001  6.2824095e-001  1.3481077e+000  8.3968209e-001  1.7336783e+000  1.3093599e+000  1.2247400e+000  1.6802579e+000
  6.8460652e-001  7.2219763e-001  1.2483961e+000  7.2659904e-001  1.4879861e+000  8.1550585e-001  5.5181178e-001  1.5512884e+000
  8.4163774e-001  5.2011833e-001  1.2180550e+000  6.3775651e-001  1.4628597e+000  1.1230501e+000  1.5679658e+000  1.3501471e+000
  6.1458107e-001  3.5355882e-001  4.8536695e-001  4.2704051e-001  1.2958720e+000  5.9473162e-001  6.5956750e-001  1.3294664e+000
  1.0726882e+000  5.3993445e-001  1.3459449e+000  6.7871448e-001  8.3187254e-001  6.0169660e-001  7.7974595e-001  7.6706632e-001
  9.5279323e-001  6.8174830e-001  1.2609456e+000  7.7749936e-001  1.2512052e+000  5.9924726e-001  1.2100450e+000  1.1903092e+000
  1.2549048e+000  1.2456870e+000  1.6964505e+000  1.3363233e+000  1.5656706e+000  9.8395000e-001  1.1969995e+000  1.5299094e+000
  1.0446432e+000  1.0687755e+000  1.6336621e+000  1.1139503e+000  1.4303664e+000  1.0788029e+000  1.3713756e+000  1.3352042e+000
  9.5542613e-001  9.3592526e-001  1.5042631e+000  1.0442862e+000  4.2983587e-001  2.5744372e-001  2.0157905e-001  4.4220420e-001
  1.0968637e+000  8.7298112e-001  1.5327385e+000  9.2855612e-001  5.9166157e-001  2.8257454e-001  3.8697105e-001  5.7630074e-001
  4.6833873e-001  4.7645268e-001  8.8154067e-001  5.5737079e-001  1.1899611e+000  5.7418021e-001  3.6928331e-001  1.2458820e+000
  4.8563926e-001  3.3539946e-001  7.4212798e-001  3.9962200e-001  1.0982517e+000  6.4276713e-001  1.4178647e+000  9.7101406e-001
  1.1741536e+000  1.2833571e+000  1.5606870e+000  1.3121476e+000  1.7671036e+000  1.0584100e+000  1.3054327e+000  1.7265917e+000
  5.2231909e-001  6.5493823e-001  8.8040216e-001  8.2522533e-001  1.0303662e+000  4.8607744e-001  1.1015865e+000  9.5832317e-001
  1.3535940e+000  1.3086153e+000  1.6282027e+000  1.3608791e+000  1.0160881e+000  7.5125096e-001  8.6251092e-001  9.8634595e-001
  1.0490586e+000  9.8432033e-001  1.2561903e+000  9.4491904e-001  8.4484865e-001  6.7973608e-001  6.0458055e-001  8.3329562e-001
  5.0036305e-001  4.9477074e-001  6.4085075e-001  5.7945674e-001  1.4979245e+000  1.1192829e+000  1.1539080e+000  1.4416265e+000
  1.0148030e+000  9.6887761e-001  1.6967425e+000  1.1352300e+000  1.3213802e+000  1.0957815e+000  1.6235241e+000  1.1531809e+000
  9.2928986e-001  8.4200072e-001  1.5435919e+000  1.0504634e+000  5.6323804e-001  8.2674313e-001  9.1598723e-001  4.3346074e-001
  1.2354497e+000  1.3291884e+000  1.7644816e+000  1.4054724e+000  1.0691300e+000  5.3557833e-001  7.7886843e-001  1.0541450e+000
  8.7063482e-001  7.0310311e-001  7.8480566e-001  6.5905868e-001  1.5304557e+000  1.2469952e+000  2.0164319e+000  1.3156865e+000
  4.8644219e-001  2.4544412e-001  7.3357245e-001  3.1525123e-001  1.2780015e+000  9.3405414e-001  1.4328889e+000  1.1903774e+000
  9.3118131e-001  8.6644232e-001  1.2055443e+000  8.8541504e-001  1.0104432e+000  4.5249168e-001  5.4786269e-001  1.0576221e+000
  7.8061066e-001  7.7721326e-001  1.0102830e+000  8.3024756e-001  1.2089737e+000  8.1829954e-001  1.3501538e+000  1.1165041e+000
  5.5198512e-001  8.6984039e-001  9.0094033e-001  7.8904994e-001  1.2635992e+000  6.7440717e-001  4.9115678e-001  1.3214871e+000
  5.5914106e-001  4.3346614e-001  5.2443794e-001  4.6015267e-001  1.3601746e+000  1.0798877e+000  1.7965000e+000  1.2039640e+000
  6.4713598e-001  3.0345856e-001  9.2152914e-001  3.5473790e-001  1.3454625e+000  9.9353564e-001  1.6505099e+000  1.1991904e+000
  4.4319095e-001  3.5400576e-001  6.9140508e-001  3.6485593e-001  1.5327886e+000  7.4742033e-001  5.4886727e-001  1.6070448e+000
  4.9769530e-001  7.2604427e-001  8.1002403e-001  5.8873459e-001  8.7357797e-001  4.3110739e-001  9.9641334e-001  8.0672918e-001
  1.0944598e+000  5.0403461e-001  1.3104434e+000  6.5515871e-001  1.4419292e+000  7.7667335e-001  8.8354071e-001  1.4549583e+000
  1.1064454e+000  8.9589755e-001  1.6025646e+000  9.1999095e-001  9.8938394e-001  5.3129524e-001  4.1994409e-001  1.0060867e+000
  1.0162957e+000  6.5440116e-001  1.0947869e+000  7.7043480e-001  1.2307851e+000  7.7392831e-001  7.7961887e-001  1.2077610e+000
  7.2032832e-001  6.0436259e-001  1.3467928e+000  8.4495690e-001  7.9236861e-001  7.8711465e-001  8.2138907e-001  7.2527154e-001
  7.2949691e-001  6.6631421e-001  1.2659281e+000  8.9139556e-001  8.2660442e-001  4.3855900e-001  6.0345494e-001  8.0730151e-001
  1.0233999e+000  9.9603691e-001  1.5035024e+000  1.0886251e+000  1.0299146e+000  6.1683205e-001  4.0416917e-001  1.0748155e+000
  1.2017186e+000  1.3006157e+000  1.8197496e+000  1.3655020e+000  9.2987260e-001  6.1471520e-001  1.0144580e+000  8.7481111e-001
  7.0548217e-001  4.1131783e-001  6.2299991e-001  5.2730150e-001  9.5125956e-001  9.1364770e-001  1.5123122e+000  7.7545409e-001
  7.3398242e-001  7.9797067e-001  1.0582700e+000  7.5895904e-001  9.7088021e-001  7.9594598e-001  1.4050861e+000  8.3657547e-001
  1.0900225e+000  7.8436536e-001  1.1276616e+000  9.9685246e-001  1.4499733e+000  8.7048223e-001  8.5437114e-001  1.4419142e+000
  6.4808363e-001  6.5747166e-001  1.3787071e+000  7.2056606e-001  1.8168526e+000  1.3391562e+000  1.5770833e+000  1.7223512e+000
  8.0953050e-001  3.5232274e-001  9.0929955e-001  4.3462458e-001  1.1331448e+000  6.1821922e-001  1.2979969e+000  1.0604568e+000
  7.8903102e-001  9.6588892e-001  1.4833933e+000  1.0933394e+000  1.1430300e+000  1.1204441e+000  1.3666276e+000  1.0171450e+000
  6.1062018e-001  7.1022587e-001  1.1340812e+000  6.4333852e-001  1.2245334e+000  1.0445450e+000  1.2333842e+000  1.1195002e+000
  9.3039573e-001  4.7594897e-001  1.0625997e+000  5.7072214e-001  2.0042920e+000  1.4088479e+000  1.9793704e+000  1.8694851e+000
  1.1552787e+000  9.5172850e-001  1.4949567e+000  1.0025990e+000  9.4989537e-001  7.8916282e-001  1.0748213e+000  8.3956140e-001
  7.3699250e-001  4.7817536e-001  8.6478451e-001  4.4290845e-001  1.6041550e+000  7.4279946e-001  1.3496745e+000  1.5573461e+000
  5.1853429e-001  3.8913271e-001  7.1399232e-001  3.6642977e-001  1.2796581e+000  7.9352582e-001  9.4539173e-001  1.2520273e+000
  2.1614558e-001  1.6603388e-001  4.1029511e-001  1.8858058e-001  9.3282623e-001  1.0147403e+000  1.1631663e+000  8.0234934e-001
  6.5853939e-001  4.7212830e-001  1.1142088e+000  4.8417213e-001  5.4376405e-001  5.3917138e-001  9.2202786e-001  4.3861897e-001
  5.9979757e-001  5.9955766e-001  8.9995091e-001  5.6435388e-001  5.5292204e-001  1.9192652e-001  8.4416937e-001  4.8359553e-001
  1.1823800e+000  9.2959436e-001  1.5331145e+000  1.0256796e+000  9.6967362e-001  9.9048607e-001  1.0519521e+000  8.4670587e-001
  4.9183858e-001  3.1880642e-001  7.5782800e-001  4.0214253e-001  1.1947972e+000  7.6822216e-001  7.8451650e-001  1.1765496e+000
  6.0313787e-001  5.1610443e-001  7.5142491e-001  6.1545763e-001  1.8682542e-001  1.7080196e-001  1.4802223e-001  1.7961580e-001
  8.6332725e-001  8.7427253e-001  1.2679315e+000  7.6579643e-001  1.4374505e+000  1.0376893e+000  9.7088299e-001  1.4155372e+000
  1.0221764e+000  1.1548157e+000  1.9100869e+000  1.2568050e+000  1.0807514e+000  8.1766813e-001  1.5777149e+000  9.1996154e-001
  9.1387364e-001  5.0928438e-001  8.1956446e-001  5.6253305e-001  9.9242371e-001  1.0319794e+000  1.3867690e+000  8.2002952e-001
  8.0053233e-001  6.6769267e-001  8.7031295e-001  7.3595974e-001  1.2133041e+000  1.1803419e+000  1.3814829e+000  1.0790121e+000
  9.9843498e-001  1.1508474e+000  1.3632425e+000  1.1978558e+000  1.4580445e+000  9.9504046e-001  1.0138563e+000  1.4261527e+000
  1.0366838e+000  9.3904267e-001  1.2501782e+000  8.8334861e-001  3.7485819e-001  2.3807933e-001  2.5671612e-001  3.5909902e-001
  1.8600913e-001  1.6725752e-001  3.4247517e-001  2.1999050e-001  1.0593444e+000  9.8039063e-001  9.5103331e-001  9.9881311e-001
  2.7017003e-001  1.4526761e-001  3.8768658e-001  1.8640471e-001  1.8621470e+000  1.2728620e+000  1.7961285e+000  1.7378056e+000
  6.2247456e-001  8.3324118e-001  1.1334207e+000  7.6414414e-001  1.3769725e+000  1.1545630e+000  1.1258153e+000  1.3024750e+000
  1.1395073e+000  7.8576802e-001  1.5000572e+000  8.8906352e-001  7.9133430e-001  3.9523152e-001  4.2229019e-001  7.8630786e-001
  1.2729429e+000  1.0284387e+000  1.5725649e+000  1.0069923e+000  1.1216540e+000  4.5395335e-001  7.8276135e-001  1.1390663e+000
  6.3030524e-001  8.1041590e-001  9.2291047e-001  7.3788363e-001  1.3988268e+000  9.7219795e-001  8.9196127e-001  1.3907022e+000
  1.0508336e+000  6.4370156e-001  1.2906416e+000  9.1798007e-001  8.6966409e-001  5.9270353e-001  7.3569294e-001  8.4287270e-001
  6.2997609e-001  2.7779257e-001  6.2892725e-001  3.2478641e-001  1.4051016e+000  7.8997731e-001  1.4085397e+000  1.3244630e+000
  1.1938304e+000  1.0992353e+000  1.5461393e+000  1.1197620e+000  1.3814900e+000  6.4052192e-001  8.5956069e-001  1.3927643e+000
  6.2582610e-001  4.1966477e-001  6.0312203e-001  4.0090051e-001  1.2274669e+000  7.6305872e-001  7.4283765e-001  1.2093239e+000
  1.0295603e+000  1.0704362e+000  1.9038800e+000  1.2090781e+000  9.6634309e-001  1.0660002e+000  1.2796212e+000  8.2126995e-001
  3.6950069e-001  2.7599121e-001  6.8319326e-001  3.4426367e-001  1.5667314e+000  7.2089453e-001  1.0477900e+000  1.5610614e+000
  8.9096163e-001  8.5825372e-001  1.3389726e+000  9.9124305e-001  1.0709537e+000  1.0454337e+000  1.2314229e+000  9.6224277e-001
  7.7562306e-001  7.6646713e-001  1.2937969e+000  7.6990924e-001  1.0027634e+000  4.3864271e-001  1.0855100e+000  9.3973348e-001
  1.1328331e+000  1.2363040e+000  1.7990003e+000  1.3231994e+000  1.1124604e+000  1.0113735e+000  1.1626823e+000  1.0173595e+000
  1.0430502e+000  1.0168735e+000  1.7578420e+000  1.1650247e+000  1.6124788e+000  1.1363218e+000  1.2544923e+000  1.5572615e+000
  9.8192548e-001  7.6380963e-001  1.2096650e+000  8.0496932e-001  1.4149903e+000  1.1560560e+000  1.4042550e+000  1.2997610e+000
  1.0689107e+000  5.3327852e-001  1.1714048e+000  7.5566672e-001  3.6267387e-001  2.1155748e-001  3.3508319e-001  3.5285300e-001
  1.1128007e+000  6.3074579e-001  1.5010179e+000  8.5728909e-001  6.1951223e-001  2.5371250e-001  7.9976523e-001  5.7582162e-001
  7.2174807e-001  6.2260616e-001  8.4449192e-001  6.0067684e-001  1.4456260e+000  8.7371794e-001  1.1523999e+000  1.4036935e+000
  1.1643017e+000  1.0497724e+000  1.3423804e+000  1.1664277e+000  1.2360645e+000  6.4950864e-001  6.5080013e-001  1.2597219e+000
  8.1405455e-001  9.5030832e-001  1.1859608e+000  9.9963539e-001  1.5389925e+000  6.3058456e-001  1.2112405e+000  1.5259356e+000
  1.1041933e+000  9.9504577e-001  1.5841792e+000  1.1515327e+000  8.4872465e-001  6.6222031e-001  1.0619707e+000  7.5431779e-001
  6.9957316e-001  7.1880107e-001  1.0399833e+000  7.4350634e-001  1.3587975e+000  1.1802572e+000  1.2264516e+000  1.2844391e+000
  6.1223301e-001  4.6119282e-001  1.1338936e+000  6.8156692e-001  1.0844849e+000  1.0722485e+000  1.6544916e+000  8.9165034e-001
  1.1157076e+000  9.3827280e-001  1.2276409e+000  1.1195534e+000  1.1913019e+000  7.7209936e-001  1.4814788e+000  1.0889518e+000
  1.1755579e+000  8.4928836e-001  1.5231709e+000  9.3479905e-001  4.9873258e-001  5.8025370e-001  8.3021563e-001  4.0006767e-001
  9.7834796e-001  6.7072313e-001  1.0705001e+000  6.6711508e-001  1.6485970e+000  9.6194772e-001  1.1010193e+000  1.6336388e+000
  8.7413745e-001  5.1144524e-001  1.1486751e+000  6.4549373e-001  1.3640779e+000  7.7152509e-001  8.2666112e-001  1.3707790e+000
  9.4521839e-001  8.5053007e-001  1.3800135e+000  9.6826245e-001  1.8787122e+000  1.4065506e+000  2.0711995e+000  1.7044321e+000
  9.9456717e-001  6.2677644e-001  1.2411515e+000  6.8455082e-001  1.5776274e+000  1.0807327e+000  1.2707686e+000  1.5249704e+000
  9.8114629e-001  9.2426987e-001  1.4175490e+000  1.0935141e+000  7.5480636e-001  8.2019055e-001  1.3103235e+000  5.9058966e-001
  1.0917499e+000  7.8750696e-001  1.4840064e+000  9.2427642e-001  1.8774798e+000  1.4692473e+000  1.4507494e+000  1.7932607e+000
  1.2219169e+000  1.0050485e+000  1.3704094e+000  1.1157298e+000  3.3733909e-001  5.6330465e-001  7.4405872e-001  2.2324622e-001
  2.9774793e-001  2.4284922e-001  4.7652456e-001  2.7467695e-001  4.2090662e-001  1.7823238e-001  4.4737038e-001  4.0137491e-001
  8.6320164e-001  6.9682784e-001  1.4312829e+000  8.2718259e-001  1.1507840e+000  8.5837352e-001  1.4834006e+000  1.0223723e+000
  7.9740493e-001  8.4904461e-001  1.2087141e+000  8.8211425e-001  8.1217341e-001  7.0763679e-001  9.8429567e-001  7.0643511e-001
  9.7863735e-001  7.9667962e-001  1.5373804e+000  9.8146313e-001  9.4357876e-001  6.5284547e-001  8.5323707e-001  8.8030911e-001
  6.0197942e-001  8.5941211e-001  1.1069130e+000  8.5204764e-001  8.8741382e-001  4.6824895e-001  5.0205014e-001  9.0104520e-001
  3.8227208e-001  1.6510471e-001  5.2466309e-001  1.9798873e-001  1.2119623e+000  4.4607645e-001  9.7361525e-001  1.2171359e+000
  5.6190907e-001  7.2625328e-001  1.1704432e+000  6.7486041e-001  1.4796170e+000  9.0355530e-001  1.5108156e+000  1.4049821e+000
  7.1268579e-001  8.0608325e-001  9.7930355e-001  8.3230770e-001  1.4717167e+000  7.9066447e-001  6.5173982e-001  1.5117059e+000
  8.3097444e-001  3.0651286e-001  1.0161852e+000  3.3948098e-001  1.7704502e+000  1.1346484e+000  1.2482603e+000  1.7336694e+000
  1.1730721e+000  1.0898393e+000  1.4794856e+000  1.0891185e+000  9.5315974e-001  5.1294162e-001  9.0595263e-001  8.8694726e-001
  8.3323459e-001  1.1267594e+000  1.3400372e+000  1.1544526e+000  9.3061210e-001  7.6604866e-001  6.5699375e-001  9.1848723e-001
  1.0980903e+000  8.6001462e-001  1.4667429e+000  8.5789470e-001  1.7004466e+000  1.0124726e+000  1.5095769e+000  1.6351830e+000
  1.2128420e+000  9.9850661e-001  1.5270836e+000  9.0129961e-001  1.3377017e+000  1.0937809e+000  1.8042882e+000  1.1689427e+000
  1.0814438e+000  1.1445168e+000  1.8072839e+000  1.2400788e+000  1.4757532e+000  1.2088574e+000  1.9339073e+000  1.3068788e+000
  7.5777506e-001  3.7509473e-001  5.5875640e-001  3.8160877e-001  1.2433125e+000  1.0801544e+000  1.0654803e+000  1.1576040e+000
  5.6281390e-001  4.7336208e-001  1.1359045e+000  5.7997814e-001  1.0744301e+000  7.8360660e-001  9.5889824e-001  1.0321375e+000
  7.7537219e-001  4.7766431e-001  1.3052717e+000  6.8549501e-001  1.2088195e+000  7.9885639e-001  1.5029356e+000  1.0917223e+000
  1.0119887e+000  8.7876913e-001  1.6050204e+000  1.0834116e+000  4.8225297e-001  1.3193730e-001  7.1255015e-001  4.4060700e-001
  9.4906405e-001  7.8776097e-001  1.2265134e+000  8.6222924e-001  1.2312596e+000  7.3904621e-001  1.1127508e+000  1.1636884e+000
  1.1084082e+000  1.0778482e+000  1.9401499e+000  1.2281996e+000  1.0397687e+000  5.1969420e-001  5.2339975e-001  1.0411333e+000
  1.0018690e+000  1.0019322e+000  1.1637531e+000  8.7011153e-001  1.5787123e+000  1.1031840e+000  1.0877454e+000  1.5546449e+000
  3.4611764e-001  6.6911043e-002  6.8718050e-001  1.1151711e-001  4.5898674e-001  3.2578219e-001  4.0809117e-001  4.2587604e-001
  5.7069742e-001  3.5936043e-001  7.4451278e-001  4.1048800e-001  1.1678835e+000  1.0493203e+000  1.8147309e+000  9.6557087e-001
  3.6968422e-001  4.2684876e-001  6.5858150e-001  5.5750856e-001  7.2433678e-001  4.0733224e-001  1.0250211e+000  6.3897087e-001
  1.0213982e+000  9.3394507e-001  1.5763879e+000  1.0689936e+000  1.0441627e+000  8.1015890e-001  1.6306029e+000  8.8315164e-001
  1.3715665e+000  1.3356738e+000  1.7040778e+000  1.3955800e+000  9.4229548e-001  8.7818495e-001  1.3220253e+000  7.8607851e-001
  7.3265759e-001  4.8949964e-001  1.0754885e+000  5.6962027e-001  1.1610592e+000  8.1103445e-001  1.4299701e+000  1.0614539e+000
  1.1129488e+000  8.1132370e-001  1.5252518e+000  8.1080196e-001  1.5701070e+000  1.2880711e+000  1.3072651e+000  1.4707887e+000
  8.1323437e-001  6.9034249e-001  8.3035997e-001  7.2500822e-001  6.7822401e-001  4.3889495e-001  7.4713730e-001  6.2647392e-001
  7.6597415e-001  4.1454950e-001  5.7403212e-001  4.3618966e-001  1.3735430e+000  1.1735643e+000  1.7215564e+000  1.1942202e+000
  1.0664231e+000  1.1115007e+000  1.4704731e+000  1.1274066e+000  1.5238964e+000  9.1626869e-001  1.1426796e+000  1.4898537e+000
  1.1173353e+000  1.0568693e+000  1.7943567e+000  1.0610571e+000  1.2662382e+000  7.8728978e-001  1.4786729e+000  1.1552756e+000
  4.4647956e-001  5.0187428e-001  6.1006547e-001  4.3756284e-001  1.2854731e+000  1.1142393e+000  1.8962783e+000  1.0870668e+000
  8.4779013e-001  5.9036986e-001  1.1322422e+000  6.5378123e-001  1.1812136e+000  7.3637451e-001  1.3823887e+000  1.0889800e+000
  7.1943629e-001  1.0197218e+000  1.3539231e+000  1.0163624e+000  1.6657112e+000  8.3075411e-001  1.4247987e+000  1.6205691e+000
  8.1158187e-001  7.1854494e-001  1.1570005e+000  6.5971892e-001  1.6373572e+000  1.1157660e+000  1.0905688e+000  1.6036492e+000
  9.8431897e-001  5.1759994e-001  1.0794015e+000  6.2668495e-001  5.9186673e-001  3.9471767e-001  1.0615968e+000  4.8269810e-001
  6.5299156e-001  4.0131017e-001  5.4951405e-001  4.7515017e-001  8.8968102e-001  3.6263474e-001  5.1546280e-001  9.2366397e-001
  1.1294807e+000  7.5933864e-001  1.6061389e+000  9.2888595e-001  5.6456031e-001  2.7511410e-001  1.0776606e+000  4.5798329e-001
  1.0185077e+000  8.5841158e-001  1.4838212e+000  8.8014930e-001  1.9109308e+000  1.4317716e+000  2.0147436e+000  1.7649463e+000
  1.1288970e+000  1.2745115e+000  1.5151845e+000  1.3683512e+000  1.6592749e+000  1.2308494e+000  1.8527340e+000  1.5252072e+000
  8.8445995e-001  7.5727682e-001  1.0405173e+000  6.8400870e-001  1.5119314e+000  1.0682309e+000  1.6262915e+000  1.3876974e+000
  1.3339602e+000  1.2374376e+000  1.7850562e+000  1.3199547e+000  1.1350573e+000  7.2467269e-001  8.6902762e-001  1.1205179e+000
  3.5105305e-001  1.0731990e-001  4.3947381e-001  1.4442443e-001  1.2760237e+000  9.9968013e-001  9.5292866e-001  1.2295076e+000
  7.2948858e-001  5.3592427e-001  1.1979869e+000  6.0380732e-001  1.3968169e+000  1.0078274e+000  9.3150488e-001  1.3732250e+000
  1.0337060e+000  9.1423483e-001  1.0955722e+000  8.9626024e-001  1.3029160e+000  8.3226241e-001  1.5905517e+000  1.1776579e+000
  9.9943989e-001  8.8692354e-001  1.2138303e+000  8.4206169e-001  1.5134098e+000  9.2676935e-001  1.5238316e+000  1.4002884e+000
  8.2811635e-001  4.7081108e-001  8.8815621e-001  5.8421548e-001  1.2158475e+000  1.0344668e+000  1.6239973e+000  1.0649590e+000
  9.9708970e-001  9.6759218e-001  1.2823335e+000  8.2656204e-001  1.8136205e+000  1.3435449e+000  1.7532677e+000  1.6995344e+000
  7.6435250e-001  6.0498197e-001  1.1608956e+000  6.3200619e-001  1.1436163e+000  7.0722181e-001  9.1174301e-001  1.0937251e+000
  8.3687866e-001  7.4284829e-001  1.3328289e+000  8.0007371e-001  1.4255298e+000  9.8640104e-001  1.2785196e+000  1.3500780e+000
  1.1952949e+000  1.0656096e+000  1.8724129e+000  1.2211682e+000  1.0553330e+000  8.2628982e-001  1.5313818e+000  8.9136094e-001
  5.1209796e-001  4.8601383e-001  9.0893696e-001  5.9770983e-001  8.9372074e-001  4.8175877e-001  6.7843123e-001  8.8370424e-001
  1.0210891e+000  6.6480930e-001  1.3344941e+000  6.8708362e-001  1.4155595e+000  9.6659734e-001  1.3245308e+000  1.3161632e+000
  6.1637109e-001  8.7593895e-001  1.1712007e+000  8.0671339e-001  1.2501804e+000  5.8541034e-001  6.5849562e-001  1.2713730e+000
  1.0015176e+000  6.8769995e-001  1.0520098e+000  7.5686035e-001  1.3668978e+000  7.2685875e-001  8.8480957e-001  1.3717566e+000
  1.3353607e+000  1.0531909e+000  1.8493106e+000  1.2551684e+000  1.0041007e+000  6.8621760e-001  1.2406815e+000  9.1433831e-001
  5.9157825e-001  6.5713345e-001  1.0023679e+000  7.8690107e-001  1.0594432e+000  7.3787659e-001  1.3335783e+000  9.5138129e-001
  1.2143086e+000  1.0296616e+000  1.3407955e+000  1.0971693e+000  1.6263065e+000  1.0822336e+000  1.1229315e+000  1.5941081e+000
  4.3327642e-001  4.1056896e-001  6.0698844e-001  5.7733106e-001  7.9472669e-001  3.9139102e-001  2.0461469e-001  8.6766056e-001
  8.1374549e-001  5.9351870e-001  1.1640664e+000  8.4995137e-001  1.2799676e+000  1.0839114e+000  1.6745964e+000  1.1338409e+000
  9.1456726e-001  8.8868364e-001  1.3787313e+000  1.0275498e+000  6.6172595e-001  6.2476084e-001  9.9587600e-001  5.4978774e-001
  9.8596720e-001  7.9441228e-001  1.3886703e+000  7.2288244e-001  1.0330058e+000  6.3906291e-001  1.0472258e+000  9.6351552e-001
  4.2477362e-001  2.5470794e-001  9.1866670e-001  3.5588712e-001  1.5815798e+000  1.1267802e+000  1.8367869e+000  1.4307957e+000
  8.4735411e-001  6.6546339e-001  1.3250731e+000  6.0696493e-001  9.0094845e-001  6.9668256e-001  5.3661423e-001  8.9848776e-001
  1.4135500e+000  1.1080072e+000  1.9102540e+000  1.3004592e+000  1.3657160e+000  7.5309398e-001  5.4252337e-001  1.4166086e+000
  9.3588925e-001  1.1010850e+000  1.4930603e+000  1.1470843e+000  8.2515381e-001  2.7739490e-001  8.7551740e-001  7.9693387e-001
  1.1111442e+000  1.2270147e+000  1.7649142e+000  1.3351259e+000  1.6705524e+000  1.4064668e+000  1.3664592e+000  1.5752232e+000
  4.0394970e-001  4.0990226e-001  6.9545273e-001  5.1507889e-001  1.0177632e+000  8.0411161e-001  1.1605866e+000  9.2063813e-001
  6.4921765e-001  5.8224991e-001  9.4011584e-001  5.5982825e-001  1.1070372e+000  7.6992576e-001  9.4525800e-001  1.0679888e+000
  9.4645587e-001  9.3827650e-001  1.5032533e+000  8.7670673e-001  1.3267336e+000  1.1136065e+000  1.8503223e+000  1.1241885e+000
  8.9448492e-001  7.3674393e-001  1.0509536e+000  8.8859271e-001  1.5114612e+000  9.9316619e-001  9.2585469e-001  1.4935188e+000
  5.7219464e-001  6.0851775e-001  8.3178682e-001  6.2815236e-001  6.3455094e-001  6.6973901e-001  8.8406814e-001  5.3733857e-001
  1.1247803e+000  1.1032489e+000  1.7763922e+000  1.0565974e+000  9.8428646e-001  7.7375742e-001  5.7131524e-001  9.9452936e-001
  9.2205958e-001  4.6795436e-001  8.6954461e-001  5.4016563e-001  1.7203156e+000  1.1192874e+000  1.4965272e+000  1.6416176e+000
  7.7269115e-001  8.2249285e-001  1.3411833e+000  7.1815411e-001  1.3318069e+000  7.2949629e-001  1.1625384e+000  1.2794156e+000
  7.7052349e-001  4.8986075e-001  6.0896135e-001  4.6272649e-001  1.4665139e+000  1.1396924e+000  1.1761679e+000  1.4010473e+000
  7.2157302e-001  8.4544951e-001  9.1078778e-001  7.2118081e-001  1.1197932e+000  6.8200769e-001  8.6682804e-001  1.0745320e+000
  8.3500388e-001  5.8309809e-001  1.1803266e+000  8.1509334e-001  1.2943067e+000  7.7313983e-001  1.5501070e+000  1.1703050e+000
  4.9901170e-001  4.6368764e-001  7.8315717e-001  6.7879479e-001  3.0301312e-001  2.3509766e-001  2.3605932e-001  2.9140688e-001
  1.2595880e+000  7.2107386e-001  1.5606021e+000  9.3657563e-001  1.1631622e+000  6.5827436e-001  9.9484031e-001  1.1025619e+000
  9.7812245e-001  1.0647800e+000  1.2755816e+000  1.1210944e+000  9.9590982e-001  4.5465517e-001  4.6138897e-001  1.0413874e+000
  8.1594831e-001  5.8858147e-001  8.0532094e-001  6.0402982e-001  1.5058913e+000  1.1258611e+000  1.2036583e+000  1.4339978e+000
  8.9913133e-001  5.9987352e-001  1.1624000e+000  6.2982351e-001  8.5858817e-001  4.3952917e-001  1.0006390e+000  7.8135665e-001
  5.2450223e-001  4.4867065e-001  5.9218409e-001  4.3718481e-001  1.2621115e+000  8.7599342e-001  1.0160678e+000  1.1947797e+000
  7.3086621e-001  7.8643511e-001  1.3928854e+000  9.6770972e-001  5.2209178e-001  4.1265029e-001  6.7977062e-001  4.5959483e-001
  8.9077606e-001  6.5785234e-001  9.1534699e-001  7.9554271e-001  4.3289982e-001  3.3152215e-001  5.0642880e-001  3.9569409e-001
  7.2662713e-001  9.6751960e-001  1.5559580e+000  8.8891107e-001  7.0978787e-001  5.2339042e-001  7.7220045e-001  6.5540063e-001
  1.2545299e+000  1.1183605e+000  1.9286644e+000  1.2279620e+000  1.3527915e+000  1.1529682e+000  1.5167005e+000  1.1970833e+000
  6.5258533e-001  9.4075527e-001  1.3572895e+000  8.5153826e-001  1.7005030e+000  1.1087186e+000  1.1519375e+000  1.6746270e+000
  1.5328209e-001  2.3393184e-001  2.9666880e-001  2.1595746e-001  8.2941357e-001  8.7783502e-001  1.2357323e+000  6.7991855e-001
  4.5805505e-001  2.8132150e-001  5.8234399e-001  2.9475962e-001  7.0235548e-001  5.5799975e-001  6.7532340e-001  6.4103411e-001
  8.2174141e-001  2.4765809e-001  8.4816564e-001  3.1343788e-001  1.0423679e+000  9.3334373e-001  9.1920478e-001  9.6665957e-001
  6.7250194e-001  7.6772176e-001  1.1291261e+000  8.4863354e-001  1.3463487e+000  1.1136336e+000  1.0412700e+000  1.2744996e+000
  1.3386979e+000  1.3273122e+000  1.8285477e+000  1.4468936e+000  1.4206629e+000  1.0871171e+000  1.0774568e+000  1.3719264e+000
  9.0523574e-001  5.9619381e-001  1.1168401e+000  5.5397668e-001  1.4720042e+000  8.1295649e-001  9.5520351e-001  1.4651384e+000
  7.7234138e-001  8.7436847e-001  1.1345946e+000  1.0037096e+000  1.1723750e+000  9.1873729e-001  1.6324671e+000  1.0256026e+000
  3.3728440e-001  3.1408435e-001  6.6391587e-001  2.8978826e-001  7.4633128e-001  5.5190629e-001  5.8313269e-001  6.9785840e-001
  1.1316148e+000  9.8639583e-001  1.5672854e+000  1.0734658e+000  1.0357336e+000  5.5997328e-001  4.2446253e-001  1.0764283e+000
  8.0416147e-001  4.6085775e-001  9.2100653e-001  5.2790428e-001  1.5659707e+000  1.1251746e+000  1.7045287e+000  1.4561512e+000
  8.4719145e-001  7.6716192e-001  1.1933373e+000  7.6073841e-001  9.9440150e-001  1.0971320e+000  1.2398750e+000  8.6426780e-001
  6.8727400e-001  4.5376126e-001  9.6039318e-001  5.8244532e-001  9.4280135e-001  4.9400131e-001  1.2404289e+000  8.3566990e-001
  1.1072486e+000  6.0184372e-001  1.4311211e+000  8.1264982e-001  1.6233382e+000  9.2465853e-001  1.5562591e+000  1.5442918e+000
  5.3302022e-001  3.3964551e-001  6.0464279e-001  3.5138865e-001  1.0737716e+000  9.7447205e-001  1.4370002e+000  9.1513692e-001
  1.1425696e+000  9.3176794e-001  1.3683520e+000  1.0319049e+000  1.8268806e+000  1.3704508e+000  1.8843355e+000  1.6859401e+000
  9.0056231e-001  1.0306451e+000  1.7412435e+000  1.1106988e+000  1.3034980e+000  1.0167821e+000  9.2180531e-001  1.2623713e+000
  6.2635782e-001  6.2347260e-001  9.7333409e-001  6.0636540e-001  1.3766592e+000  9.7654195e-001  9.0738260e-001  1.3581415e+000
  6.6275944e-001  4.7731633e-001  1.0780787e+000  6.2068005e-001  1.6684376e+000  1.1537947e+000  1.5873093e+000  1.5612125e+000
  8.4907976e-001  4.0574425e-001  1.0856230e+000  5.6532661e-001  1.5972278e+000  6.8281881e-001  1.2355064e+000  1.5872948e+000
  8.2301897e-001  8.9125991e-001  1.0897438e+000  9.2025753e-001  8.9060445e-001  4.3925962e-001  3.8200631e-001  9.1554065e-001
  9.2252745e-001  6.4420626e-001  1.1772481e+000  7.2779214e-001  1.0101548e+000  5.9278088e-001  7.4466294e-001  9.8828967e-001
  7.0663627e-001  5.2514585e-001  6.3002847e-001  5.2529203e-001  1.0113752e+000  6.4060941e-001  9.7300534e-001  9.2994677e-001
  9.7023049e-001  9.4490493e-001  1.7344086e+000  1.0467290e+000  1.1790317e+000  6.3486157e-001  1.0805448e+000  1.1168320e+000
  1.1208828e+000  1.1692402e+000  1.3987255e+000  1.2178670e+000  1.4715771e+000  1.1895034e+000  1.9520817e+000  1.2778220e+000
  7.3683377e-001  6.0517801e-001  1.3161525e+000  6.8420851e-001  1.5082127e+000  8.0606692e-001  8.4845464e-001  1.5292490e+000
  1.3191373e+000  1.0022228e+000  1.7687921e+000  1.2019984e+000  1.6547695e+000  7.9239979e-001  1.2751466e+000  1.6404194e+000
  1.2378994e+000  1.1002159e+000  1.6255712e+000  1.2453714e+000  1.2236745e+000  5.2669883e-001  1.0187366e+000  1.2150612e+000
  7.7724763e-001  1.0300156e+000  1.5404801e+000  1.0877226e+000  1.5585639e+000  1.2029637e+000  1.7218884e+000  1.4286548e+000
  1.3766592e+000  1.3496774e+000  1.9241423e+000  1.4423902e+000  7.2179945e-001  3.3428965e-001  9.8213527e-001  6.4618225e-001
  1.1238667e+000  8.0067684e-001  1.2454777e+000  9.5688501e-001  3.9187494e-001  4.7338682e-001  4.9494774e-001  3.3250299e-001
  8.8748881e-001  1.1798866e+000  1.4745712e+000  1.1994073e+000  1.2626571e+000  1.0282715e+000  1.5547487e+000  1.0956188e+000
  4.2837566e-001  4.4337718e-001  6.3289809e-001  3.9148654e-001  1.0131879e+000  9.2692055e-001  9.2881711e-001  9.2913490e-001
  6.9191319e-001  4.5542481e-001  8.0004678e-001  5.8771924e-001  1.0050339e+000  7.5168419e-001  7.9736142e-001  9.7256213e-001
  7.3840527e-001  9.6634756e-001  1.3157366e+000  1.0454950e+000  1.4567042e+000  1.0385585e+000  1.4023342e+000  1.3716478e+000
  1.0175474e+000  6.7988597e-001  1.2398137e+000  6.8762319e-001  1.6032182e+000  1.2631647e+000  1.5193748e+000  1.4989996e+000
  8.7618962e-001  5.0187270e-001  7.9773332e-001  4.9762295e-001  1.5533617e+000  1.0118638e+000  1.0990726e+000  1.5262465e+000
  9.5331740e-001  8.1073518e-001  1.6683020e+000  9.8622784e-001  1.3700909e+000  1.1271818e+000  1.6678206e+000  1.2268253e+000
  1.2556695e+000  7.8767157e-001  1.6815416e+000  9.8497699e-001  1.2965943e+000  6.6409487e-001  9.5730890e-001  1.2963369e+000
  9.6597617e-001  7.0707513e-001  1.2867925e+000  7.1141512e-001  9.7617113e-001  3.9198463e-001  9.2908850e-001  9.5300171e-001
  3.8533172e-001  2.2059653e-001  7.1006329e-001  3.2100336e-001  1.2249482e+000  6.1272915e-001  1.2122700e+000  1.1410972e+000
  8.4585117e-001  5.8102016e-001  1.0282695e+000  5.8730259e-001  1.3243325e+000  7.9212587e-001  1.3969441e+000  1.2189915e+000
  1.1307301e+000  1.0373519e+000  1.5002529e+000  9.5492553e-001  4.6103089e-001  6.8125341e-001  8.8331689e-001  3.3285735e-001
  7.3627945e-001  7.8704761e-001  1.2309804e+000  8.4732496e-001  8.7871002e-001  9.6585480e-001  9.3682507e-001  7.7789876e-001
  6.5163099e-001  5.5006041e-001  7.2221250e-001  5.1064237e-001  1.1735961e+000  1.0202734e+000  1.2555862e+000  1.0556929e+000
  9.4835236e-001  9.8949909e-001  1.2992337e+000  1.0370498e+000  5.9188545e-001  3.0451282e-001  2.8513769e-001  6.1611495e-001
  9.9728713e-001  6.6553907e-001  1.1914938e+000  7.5694879e-001  1.8477270e+000  1.2176815e+000  1.5958321e+000  1.7612793e+000
  8.7405739e-001  6.7830278e-001  1.4807115e+000  9.2479672e-001  1.1694795e+000  7.4037242e-001  7.8863391e-001  1.1646574e+000
  7.2706866e-001  5.8429292e-001  7.3726128e-001  5.8346938e-001  7.5688981e-001  4.7815893e-001  1.1549583e+000  6.4740468e-001
  8.2067949e-001  3.5945672e-001  1.0278548e+000  4.2927657e-001  4.1190368e-001  3.9863748e-001  8.7018095e-001  3.0436294e-001
  7.2388871e-001  8.1001867e-001  9.5923420e-001  7.0461238e-001  1.5787077e+000  1.1308380e+000  1.6948774e+000  1.4598788e+000
  1.1725167e+000  8.5857673e-001  1.6402068e+000  9.6165191e-001  1.0758299e+000  9.9722991e-001  1.0576786e+000  9.7010620e-001
  1.0993405e+000  1.2168982e+000  1.6386767e+000  1.2706182e+000  1.2567709e+000  1.1360823e+000  1.0333989e+000  1.1836546e+000
  1.0344164e+000  6.2123719e-001  1.1498745e+000  6.0523803e-001  5.2649803e-001  2.8239575e-001  5.5921596e-001  4.8829547e-001
  5.0032974e-001  7.3737358e-001  7.6877583e-001  6.5283011e-001  7.6229138e-001  4.6577672e-001  7.8046354e-001  6.9886871e-001
  6.6659905e-001  4.9936211e-001  1.1608265e+000  5.0349049e-001  1.1506633e+000  6.6367426e-001  1.2782920e+000  1.0817835e+000
  1.0757810e+000  1.1504681e+000  1.7786432e+000  1.2523534e+000  6.2488498e-001  3.3310491e-001  4.6979669e-001  6.2184965e-001
  9.9303599e-001  8.7591757e-001  1.3999409e+000  9.2784644e-001  1.5263791e+000  1.1352110e+000  1.3944071e+000  1.4215967e+000
  7.8550995e-001  7.7160261e-001  1.3103205e+000  8.0156671e-001  1.0771131e+000  7.8116287e-001  9.5015271e-001  1.0028520e+000
  1.0997893e+000  9.3650206e-001  1.2419320e+000  1.0465271e+000  1.3601085e+000  1.0249232e+000  1.5282063e+000  1.2555146e+000
  6.0163134e-001  6.6187462e-001  1.1725232e+000  7.5965414e-001  1.1387450e+000  9.0286742e-001  8.3857872e-001  1.0776617e+000
  1.2141880e+000  1.1237907e+000  1.9186481e+000  1.2226495e+000  6.6292460e-001  2.2074467e-001  8.3627587e-001  6.2652542e-001
  1.2176993e+000  1.3105302e+000  1.5712192e+000  1.3809370e+000  1.4035946e+000  8.9961299e-001  1.4880182e+000  1.2952595e+000
  7.5373077e-001  2.0960143e-001  6.7854382e-001  2.5474441e-001  9.1414783e-001  5.1707092e-001  9.5216826e-001  8.3764702e-001
  1.4106768e+000  1.2728403e+000  2.0538216e+000  1.4108075e+000  1.5342153e+000  1.1751570e+000  1.3602090e+000  1.4557868e+000
  1.0381791e+000  4.7522631e-001  1.2077891e+000  6.5765446e-001  7.0450552e-001  2.2337499e-001  7.7163065e-001  6.8630008e-001
  7.9726636e-001  8.0465283e-001  1.2134892e+000  7.1788213e-001  6.0283162e-001  2.1044376e-001  1.0136531e+000  5.2696915e-001
  7.6799339e-001  6.9871316e-001  1.0244352e+000  9.1864165e-001  4.6238237e-001  2.6609505e-001  4.7319893e-001  4.4044988e-001
  1.2824774e+000  1.1472559e+000  1.4668359e+000  1.2690174e+000  1.6882982e+000  7.4786878e-001  1.2346536e+000  1.6885135e+000
  6.7718740e-001  4.9534902e-001  1.0239457e+000  6.6761497e-001  1.3679620e+000  6.2056971e-001  8.8502095e-001  1.3688314e+000
  9.4856409e-001  8.8451139e-001  1.5889315e+000  9.4004860e-001  9.6680229e-001  6.0412067e-001  1.2449623e+000  8.6021288e-001
  6.2730132e-001  3.1298728e-001  7.0180093e-001  4.1046994e-001  1.1958565e+000  7.9259385e-001  7.4954979e-001  1.1735906e+000
  3.1465837e-001  3.5575341e-001  6.0537006e-001  3.1140380e-001  4.9786860e-001  8.6430400e-001  1.0059501e+000  3.3923976e-001
  9.2117539e-001  1.0627558e+000  1.5190525e+000  1.0146869e+000  1.1153992e+000  4.6470258e-001  9.1153371e-001  1.0800038e+000
  9.9762551e-001  6.7281561e-001  1.2965436e+000  8.2292036e-001  1.4345360e+000  7.1417887e-001  1.1873282e+000  1.3917278e+000
  1.0751052e+000  8.4041755e-001  1.4011742e+000  7.9611687e-001  9.7386550e-001  7.9459239e-001  1.2991608e+000  8.4432973e-001
  6.5424395e-001  1.0201728e+000  1.2233532e+000  9.9947392e-001  1.6006406e+000  1.2469741e+000  1.8095649e+000  1.4543890e+000
  8.0305386e-001  9.4022209e-001  1.2700807e+000  1.0330726e+000  1.2240232e+000  1.1155668e+000  1.2552565e+000  1.0907183e+000
  1.1108663e+000  1.1563587e+000  1.3744238e+000  1.1318618e+000  1.6984176e+000  1.0409302e+000  1.6425239e+000  1.6115061e+000
  4.9089998e-001  3.3976688e-001  5.5703613e-001  4.9481944e-001  1.5923390e+000  1.1996050e+000  1.5774280e+000  1.4714824e+000
  1.3828789e+000  1.0437330e+000  1.9690861e+000  1.2488964e+000  7.9108427e-001  5.4223118e-001  1.1906801e+000  6.7441887e-001
  7.0420346e-001  1.0070793e+000  1.2832342e+000  1.0893181e+000  1.3370863e+000  7.6423967e-001  1.0585811e+000  1.3034547e+000
  8.3707699e-001  8.9375730e-001  1.1990910e+000  8.2398601e-001  1.4391577e+000  8.8496579e-001  8.7777456e-001  1.4294768e+000
  7.8201284e-001  3.8891721e-001  7.1075143e-001  4.8136755e-001  1.2236819e+000  9.2684187e-001  1.1341831e+000  1.1371963e+000
  6.5213591e-001  3.4839926e-001  6.1720529e-001  3.7082337e-001  1.1353998e+000  8.9103432e-001  1.2179204e+000  1.0368323e+000
  6.6296786e-001  8.6267325e-001  1.1551271e+000  9.9895721e-001  1.5177367e+000  9.9260939e-001  1.7954166e+000  1.3563905e+000
  4.0417866e-001  3.1806606e-001  6.9305001e-001  3.8356115e-001  1.6509886e+000  9.4722631e-001  8.0754686e-001  1.6793019e+000
  6.4615730e-001  7.0701302e-001  1.0511976e+000  7.2348200e-001  1.3111613e+000  1.0024002e+000  1.4545827e+000  1.2180659e+000
  6.3982265e-001  7.4238003e-001  1.1928783e+000  9.0815301e-001  8.9821751e-001  6.7982978e-001  1.0393876e+000  7.9277786e-001
  7.6937469e-001  7.9081774e-001  1.4145096e+000  9.4882627e-001  1.8422563e+000  1.3592637e+000  1.8701038e+000  1.7140735e+000
  9.5784819e-001  6.9467151e-001  1.4119055e+000  8.8490942e-001  1.1601008e+000  1.1120758e+000  1.4219268e+000  1.0361061e+000
  8.6594609e-001  5.4220842e-001  9.5206727e-001  6.6619948e-001  1.5204124e+000  7.9289289e-001  1.3575851e+000  1.4490740e+000
  6.9566447e-001  6.7441953e-001  1.0830580e+000  7.0174770e-001  1.4118964e+000  8.4254880e-001  1.3463365e+000  1.3450973e+000
  1.0073333e+000  9.0406615e-001  1.4527781e+000  7.9787400e-001  1.4942605e+000  9.1894114e-001  1.2650854e+000  1.4199887e+000
  3.5307445e-001  5.2156909e-001  7.4124315e-001  4.3317793e-001  8.2990560e-001  5.1253845e-001  8.3284353e-001  7.6768798e-001
  9.6323983e-001  6.3160022e-001  1.3622418e+000  6.9968664e-001  1.6442047e+000  1.2764674e+000  1.5729123e+000  1.5376338e+000
  1.0033772e+000  7.0955212e-001  1.4414855e+000  9.4710237e-001  1.2828896e+000  9.4302911e-001  1.5142551e+000  1.1722794e+000
  5.9560158e-001  6.7970034e-001  1.1625689e+000  7.1511223e-001  9.8445563e-001  6.8719329e-001  1.3070995e+000  8.7546127e-001
  1.4133640e+000  1.2203519e+000  1.8982547e+000  1.3797115e+000  9.5404167e-001  6.1762667e-001  7.3458197e-001  9.2769942e-001
  6.2702162e-001  5.0287411e-001  7.1191048e-001  4.5801947e-001  5.6683520e-001  3.4491496e-001  1.1366387e+000  4.4495871e-001
  1.5217415e+000  1.3472070e+000  2.0156054e+000  1.4800198e+000  1.7303327e+000  8.7012541e-001  1.2066066e+000  1.7156034e+000
  9.6481913e-001  1.0538268e+000  1.4880564e+000  9.8132991e-001  8.8576734e-001  5.1341639e-001  9.9022166e-001  8.0548881e-001
  7.3205074e-001  6.9750606e-001  1.2309720e+000  7.6554201e-001  1.0919204e+000  6.2306945e-001  1.0773398e+000  1.0103168e+000
  9.5771332e-001  5.6060634e-001  1.2061644e+000  7.8768848e-001  2.0241839e+000  1.4997070e+000  1.7909681e+000  1.9157091e+000
  1.2891319e+000  1.0412571e+000  1.6949772e+000  1.2264979e+000  1.2906013e+000  9.8885316e-001  1.6905098e+000  1.1218854e+000
  9.2402590e-001  4.8498386e-001  8.4221129e-001  6.6648597e-001  5.4142516e-001  3.4560390e-001  5.5825926e-001  5.1239227e-001
  1.3028593e+000  9.9778302e-001  1.7427035e+000  9.7744392e-001  2.6324767e-001  2.6551914e-001  3.6236445e-001  2.2251168e-001
  1.0900107e+000  6.9826892e-001  1.3818744e+000  8.9284974e-001  9.6601513e-001  4.5603203e-001  6.1584014e-001  9.5565161e-001
  9.6084999e-001  1.1077904e+000  1.4126396e+000  1.1762822e+000  8.6604404e-001  5.8686475e-001  9.9681098e-001  7.9037337e-001
  6.9097534e-001  5.3822811e-001  6.7442107e-001  5.3343609e-001  9.6121001e-001  4.1142174e-001  1.0504339e+000  9.1656023e-001
  5.8787404e-001  7.2195614e-001  1.0517703e+000  8.3306798e-001  1.0866725e+000  5.9648335e-001  9.5754805e-001  1.0406316e+000
  1.3776233e+000  1.0745180e+000  1.7159112e+000  1.2428431e+000  1.2520287e+000  9.4588361e-001  1.0203204e+000  1.2100703e+000
  8.5959779e-001  4.3317465e-001  9.7368460e-001  5.8430061e-001  1.3307533e+000  7.5717381e-001  1.4763405e+000  1.2316295e+000
  1.2478071e+000  9.0820414e-001  1.5278233e+000  1.1194070e+000  1.2169315e+000  1.0130798e+000  1.1864352e+000  1.1360733e+000
  1.0905366e+000  1.1860813e+000  1.8763509e+000  1.2540033e+000  7.4881083e-001  5.2097918e-001  6.4159937e-001  7.0121544e-001
  1.0202023e+000  1.0731578e+000  1.5217927e+000  1.0028359e+000  1.5160725e+000  7.3254172e-001  9.9161210e-001  1.5161665e+000
  1.2650295e+000  1.2537226e+000  2.0254568e+000  1.3568117e+000  8.5265191e-001  5.7646647e-001  9.2955825e-001  7.9775598e-001
  8.1709983e-001  3.6077439e-001  7.4083974e-001  3.9367252e-001  8.4922692e-001  5.2216308e-001  6.2734462e-001  8.4023648e-001
  1.1782841e+000  1.0576083e+000  1.4859104e+000  1.1761971e+000  1.5724770e+000  1.1877026e+000  1.4923864e+000  1.4584485e+000
  1.1749155e+000  1.2090697e+000  1.7382512e+000  1.3252749e+000  7.2846599e-001  6.2445815e-001  5.4695061e-001  7.0763907e-001
  1.3193174e+000  9.6412507e-001  1.7109424e+000  1.0956803e+000  1.2033847e+000  6.0833817e-001  8.6007197e-001  1.2039888e+000
  7.0718691e-001  8.6392263e-001  1.0475670e+000  7.4225313e-001  1.1374521e+000  9.7527090e-001  8.5833621e-001  1.1053185e+000
  1.1474228e+000  9.7989100e-001  1.5135708e+000  1.0690406e+000  7.8439570e-001  5.2078758e-001  8.1982591e-001  7.1234989e-001
  5.5198173e-001  3.3300221e-001  9.6611962e-001  4.7260607e-001  7.7474902e-001  3.5977761e-001  1.0061009e+000  7.0984623e-001
  1.4292725e+000  1.1595158e+000  2.0498499e+000  1.3071102e+000  1.2137612e+000  9.4075234e-001  1.2843701e+000  1.1349806e+000
  7.0596008e-001  3.5547082e-001  7.5019712e-001  4.2385204e-001  9.5259384e-001  8.2419572e-001  1.5260312e+000  7.8341676e-001
  1.0544134e+000  9.8456787e-001  1.7601096e+000  1.0740748e+000  1.3350715e+000  5.9791020e-001  1.0917784e+000  1.3082682e+000
  1.2311853e+000  1.0927829e+000  1.3527556e+000  1.1968328e+000  8.7709702e-001  8.0587109e-001  7.1275745e-001  8.4409177e-001
  1.0430690e+000  6.7034520e-001  1.3406972e+000  6.7842981e-001  1.3953253e+000  1.0802436e+000  9.1076450e-001  1.3597510e+000
  8.7868183e-001  5.8529750e-001  1.2468254e+000  7.9729878e-001  1.2607712e+000  7.3170822e-001  1.3728326e+000  1.1605893e+000
  7.7077366e-001  7.2553713e-001  1.2141472e+000  7.7606231e-001  1.4580986e+000  1.0805695e+000  8.7867744e-001  1.4434469e+000
  1.1810887e+000  1.0815528e+000  1.4694450e+000  1.0523947e+000  1.0826262e+000  6.0871658e-001  1.3364288e+000  9.8553236e-001
  9.5091608e-001  6.9531912e-001  1.3097778e+000  7.1085837e-001  1.7304848e+000  1.3057048e+000  1.8177880e+000  1.5851187e+000
  8.6541862e-001  8.7274631e-001  1.5977458e+000  8.8661721e-001  9.2284151e-001  7.9203303e-001  6.3955870e-001  9.0528184e-001
  5.8944166e-001  6.6148027e-001  1.1368901e+000  7.0644161e-001  1.2774811e+000  7.4326906e-001  1.3707310e+000  1.2043024e+000
  1.0304358e+000  9.9625664e-001  1.4205769e+000  1.1247514e+000  1.4112054e+000  1.2739398e+000  1.4472426e+000  1.3001114e+000
  7.4445171e-001  7.0983687e-001  1.2456510e+000  8.7716300e-001  9.9824093e-001  5.9277800e-001  7.0395152e-001  9.8685762e-001
  9.2859821e-001  8.3272606e-001  1.1045913e+000  1.0241138e+000  7.4083508e-001  6.5401673e-001  1.2186280e+000  6.1349350e-001
  1.4569764e+000  1.2652257e+000  2.1058407e+000  1.3768574e+000  1.4343616e+000  9.8151971e-001  1.5744155e+000  1.2931557e+000
  1.0742340e+000  9.9443950e-001  1.1601302e+000  8.8488830e-001  8.4428551e-001  6.1304873e-001  7.9743913e-001  8.1083236e-001
  8.4385419e-001  5.7754577e-001  9.0816474e-001  5.5073796e-001  5.1075909e-001  2.5127560e-001  7.7568061e-001  4.5349555e-001
  5.9568070e-001  3.2697296e-001  9.2238719e-001  3.3461676e-001  1.2497560e+000  7.6650181e-001  8.7830203e-001  1.2083179e+000
  9.0567830e-001  3.5293634e-001  1.1338217e+000  4.9307259e-001  8.4395797e-001  8.4742983e-001  1.4369480e+000  6.7045480e-001
  1.0446554e+000  7.6883418e-001  1.3494408e+000  8.8802823e-001  1.6750736e+000  1.3042605e+000  1.3785885e+000  1.5792871e+000
  9.9260736e-001  7.9790023e-001  1.0098824e+000  7.1546444e-001  7.4443076e-001  3.6383383e-001  6.6826192e-001  7.2045479e-001
  4.1524551e-001  3.9041505e-001  8.2691141e-001  4.1822124e-001  8.6111686e-001  9.1658652e-001  1.1111371e+000  7.3137554e-001
  1.1253912e+000  8.8909117e-001  1.5666260e+000  8.4204225e-001  9.2878536e-001  9.3047193e-001  1.0750056e+000  8.0304605e-001
  1.2533082e+000  1.0709629e+000  1.4091316e+000  1.2329782e+000  1.6730528e+000  8.7027963e-001  7.2787188e-001  1.7262623e+000
  5.0630042e-001  7.0252511e-001  9.4390073e-001  7.3815363e-001  1.2502568e+000  8.7672844e-001  1.4362663e+000  1.1125790e+000
  9.3411185e-001  8.9192152e-001  1.1635784e+000  7.8638440e-001  1.0731518e+000  4.6984877e-001  1.1507010e+000  1.0144698e+000
  7.3427678e-001  6.1612852e-001  1.2359813e+000  6.3912446e-001  7.9681732e-001  6.3784001e-001  8.5523333e-001  7.4069142e-001
  4.3349662e-001  2.6982372e-001  8.0466010e-001  3.9529031e-001  9.4826185e-001  5.6903688e-001  6.7523175e-001  9.2867959e-001
  1.0382279e+000  8.8791222e-001  1.4419274e+000  9.0734611e-001  1.3543964e+000  7.0806682e-001  7.3993080e-001  1.3785148e+000
  8.3118412e-001  1.0060433e+000  1.6720135e+000  1.1036634e+000  6.6266691e-001  9.4683986e-001  1.0411230e+000  5.1387537e-001
  7.1845222e-001  6.4635831e-001  9.5228053e-001  7.2913854e-001  7.8632768e-001  3.9027520e-001  7.5959683e-001  7.4776336e-001
  1.3168584e+000  1.3793622e+000  1.7464726e+000  1.4669146e+000  1.0661528e+000  4.9390301e-001  8.2556471e-001  1.0792274e+000
  1.0573706e+000  1.2226214e+000  1.8625781e+000  1.3140494e+000  7.8660867e-001  3.7004855e-001  8.6190943e-001  7.2722608e-001
  1.2136387e+000  1.1669793e+000  1.7151508e+000  1.2069762e+000  3.8171674e-001  2.4754617e-001  6.7482053e-001  3.1216959e-001
  9.3045990e-001  4.5601530e-001  9.4045315e-001  5.9432068e-001  1.2384000e+000  1.0839603e+000  1.5622227e+000  1.0985488e+000
  9.3256668e-001  7.2163224e-001  1.2411908e+000  8.7122443e-001  7.4082837e-001  6.4760259e-001  7.6879855e-001  6.7458045e-001
  1.0160239e+000  7.2122793e-001  1.4502444e+000  8.7142772e-001  7.9515277e-001  5.7500510e-001  5.2179905e-001  7.6177010e-001
  5.1684446e-001  7.2377254e-001  9.1698507e-001  6.2597895e-001  8.2732620e-001  8.4528987e-001  1.4184619e+000  6.6216011e-001
  9.3266589e-001  9.9168183e-001  1.4967561e+000  9.2636665e-001  1.7087507e+000  8.4024666e-001  8.5899246e-001  1.7482318e+000
  8.5873105e-001  8.1410542e-001  9.7315857e-001  7.8554707e-001  9.6019936e-001  4.7553206e-001  1.1324879e+000  8.9926656e-001
  6.4200055e-001  5.9262232e-001  8.7289598e-001  5.7330278e-001  8.8451627e-001  3.9420403e-001  5.5975824e-001  8.8826163e-001
  5.4586210e-001  6.1571450e-001  1.0577931e+000  7.2518665e-001  1.9261222e+000  1.0853543e+000  1.6729004e+000  1.8493355e+000
  9.3120881e-001  1.1022689e+000  1.3320883e+000  1.1379441e+000  1.2470487e+000  5.7288154e-001  8.1321179e-001  1.2474962e+000
  9.3045070e-001  9.6340354e-001  1.3994406e+000  9.7556941e-001  4.6225639e-001  4.4783345e-001  4.9758960e-001  4.0816296e-001
  1.0849811e+000  8.8382265e-001  1.4230277e+000  8.9996836e-001  1.1926668e+000  1.0006688e+000  1.1344651e+000  1.0796237e+000
  9.6132559e-001  7.3709802e-001  1.2576071e+000  8.3628594e-001  1.8999907e+000  1.4831387e+000  1.2776452e+000  1.8473946e+000
  5.8323535e-001  9.5764126e-001  1.1052577e+000  8.8823916e-001  9.5499976e-001  7.1769128e-001  7.5901747e-001  9.2781263e-001
  1.1856853e+000  1.1164604e+000  1.4704216e+000  1.1831791e+000  1.1083960e+000  7.4317018e-001  1.0280010e+000  1.0387920e+000
  8.7897363e-001  6.9796349e-001  7.9215211e-001  6.3771028e-001  1.1290692e+000  6.5089868e-001  4.9242384e-001  1.1694518e+000
  8.8558473e-001  7.5305155e-001  1.1861693e+000  8.4005510e-001  1.4434347e+000  1.1443616e+000  1.0346156e+000  1.3873656e+000
  5.9852571e-001  4.6509410e-001  8.4805949e-001  5.8197807e-001  1.0800017e+000  1.0727299e+000  1.1714233e+000  9.6517068e-001
  7.1249918e-001  6.6824905e-001  8.9489122e-001  8.3992195e-001  9.0727026e-001  8.7874446e-001  1.6018316e+000  7.1893010e-001
  5.6913750e-001  5.8125594e-001  9.3626502e-001  6.3610774e-001  4.8994449e-001  3.8030718e-001  5.4229322e-001  4.3984734e-001
  4.1592302e-001  1.4594805e-001  6.1849752e-001  2.0038935e-001  1.4961509e+000  1.2620731e+000  1.1907069e+000  1.4079743e+000
  6.7183792e-001  5.7165708e-001  8.8853831e-001  6.6199058e-001  9.7571732e-001  5.2462017e-001  1.1808260e+000  8.9082291e-001
  6.7088122e-001  8.3293489e-001  1.3052181e+000  8.9409977e-001  1.8184874e+000  1.3333373e+000  1.9563562e+000  1.6642483e+000
  7.6010557e-001  4.6008644e-001  9.5638924e-001  6.1838531e-001  1.5190845e+000  1.0583516e+000  1.8143972e+000  1.3684696e+000
  8.4008943e-001  1.1747440e+000  1.5522967e+000  1.2395687e+000  1.2372750e+000  6.1757791e-001  7.6498879e-001  1.2573979e+000
  7.7377181e-001  4.0708066e-001  9.6590185e-001  5.5720048e-001  1.5691580e+000  9.3631255e-001  1.6278634e+000  1.4494288e+000
  9.0312665e-001  9.7285574e-001  1.0939816e+000  9.4900365e-001  6.6626790e-001  3.4705824e-001  5.6099484e-001  6.4712178e-001
  6.8252577e-001  5.9653815e-001  1.1968012e+000  6.3899753e-001  8.6819470e-001  9.9755813e-001  1.2650672e+000  7.2630416e-001
  6.9085350e-001  4.6433236e-001  1.1700692e+000  6.1864447e-001  1.0942338e+000  8.4058660e-001  1.1028387e+000  1.0250539e+000
  9.7892553e-001  9.5130888e-001  1.1998340e+000  1.1065008e+000  1.1059944e+000  7.1089856e-001  6.7284434e-001  1.0818981e+000
  8.9926109e-001  1.0775855e+000  1.3281144e+000  1.0819611e+000  9.2586254e-001  8.7689485e-001  1.2386181e+000  8.0429762e-001
  1.0935304e+000  1.0251196e+000  1.4430041e+000  1.0648517e+000  1.0830192e+000  4.9673657e-001  7.9764391e-001  1.0711224e+000
  1.4613663e+000  1.2002134e+000  1.9957211e+000  1.2635654e+000  1.1997643e+000  6.7922054e-001  1.0095732e+000  1.1604709e+000
  1.2730845e+000  1.1354031e+000  1.5644608e+000  1.0916917e+000  1.0190669e+000  8.3567370e-001  1.0780990e+000  9.2144364e-001
  1.3733302e+000  1.0142977e+000  1.8848596e+000  1.2180188e+000  1.2392780e+000  7.8814013e-001  1.2516636e+000  1.1831580e+000
  8.9898088e-001  6.4366561e-001  1.4136604e+000  7.5403660e-001  1.2984160e+000  6.1474510e-001  7.4386807e-001  1.3337840e+000
  4.1053964e-001  2.5891440e-001  7.0105452e-001  2.7642753e-001  1.1148717e+000  9.6583566e-001  1.5784598e+000  9.4016951e-001
  5.3646017e-001  3.1908151e-001  8.2187391e-001  4.3331714e-001  1.1613681e+000  8.2608548e-001  1.0316231e+000  1.0848093e+000
  1.0314645e+000  6.8758989e-001  1.3186509e+000  7.5415201e-001  7.1149488e-001  5.6986835e-001  4.7386138e-001  6.9911623e-001
  7.4229854e-001  8.9742712e-001  1.1068637e+000  8.3009081e-001  4.8083136e-001  6.6416925e-001  7.1860575e-001  3.8065913e-001
  1.1281437e+000  8.4140949e-001  1.1985844e+000  9.8605623e-001  1.0210564e+000  8.3587486e-001  1.6880634e+000  8.4699139e-001
  1.1018879e+000  9.5210038e-001  1.3311327e+000  1.0158063e+000  2.7943769e-001  9.2503572e-002  3.0578245e-001  2.7192909e-001
  3.1220264e-001  2.4607024e-001  4.1580518e-001  3.2540008e-001  8.6769644e-001  4.5448238e-001  5.5522050e-001  8.6618046e-001
  8.9837978e-001  7.1404342e-001  1.3769095e+000  6.9075123e-001  1.2086049e+000  1.0442683e+000  1.2884413e+000  1.1136383e+000
  9.2987774e-001  7.0903541e-001  1.1325236e+000  8.4690605e-001  1.2413595e+000  1.1424173e+000  1.7854296e+000  1.0442749e+000
