0.004998 0.005413 -0.003935 -0.003518 -0.007989 -0.002698 -0.012061 -0.011666 -0.011281 -0.010905 -0.010538 -0.010180 0.004821 -0.014361 -0.009136 -0.008801 0.001293 0.006505 0.001954 0.002289 -0.012026 -0.011699 -0.011382 -0.011074 -0.015660 -0.010490 -0.005330 -0.005057 0.004979 0.000367 0.000640 -0.008855 0.001179 0.006330 0.016370 0.021539 0.026727 0.022168 0.022512 0.027759 0.018377 0.023662 0.019198 0.014751 0.010315 0.015657 0.016127 0.011726 0.012220 0.017607 0.018125 0.008890 0.004546 0.009975 0.000759 0.001312 0.001866 0.007306 0.002984 0.008432 0.018771 0.004706 0.000413 0.005888 0.001600 0.002197 0.002796 0.008282 -0.005762 -0.005159 0.005208 0.000928 -0.008236 -0.007638 -0.011931 -0.011350 -0.005894 -0.010211 -0.014537 0.000662 -0.008559 -0.012903 -0.017258 -0.011859 -0.016238 -0.010863 -0.015264 -0.014794 -0.014336 -0.013891 -0.008572 -0.013029 -0.002845 0.002453 -0.006899 -0.001605 -0.010964 0.004088 -0.000392 -0.004874 -0.004475 -0.008963 -0.003692 -0.003307 -0.007809 -0.007433 -0.011948 -0.011589 -0.006355 -0.010894 -0.005675 -0.019996 -0.014798 -0.014496 -0.004438 -0.009036 0.001011 -0.003593 0.001567 -0.003039 -0.002763 -0.007374 0.002661 0.007814 -0.001678 -0.001404 -0.001131 0.004026 0.004301 0.009464 0.009751 0.010046 0.000582 0.000885 0.001190 0.001496 0.001802 0.002111 -0.002463 -0.002155 0.003035 -0.001540 -0.001233 -0.000926 -0.000621 -0.000315 0.004874 0.005182 0.010380 0.010702 0.011032 0.011372 0.011721 0.007196 0.012445 0.017705 0.008327 0.018492 0.023788 0.024220 0.024672 0.020260 0.015865 0.016368 0.016884 0.017414 0.017958 0.018517 0.009324 0.014790 0.015385 0.015992 0.016613 0.022132 0.017900 0.018568 0.024135 0.029722 0.035334 0.026323 0.027101 0.027903 0.028727 0.029575 0.025564 0.021574 0.012717 0.013640 0.004805 0.000859 -0.007971 -0.007039 -0.015881 -0.005200 -0.018944 -0.027819 -0.036718 -0.045647 -0.049729 -0.063621 -0.072682 -0.081803 -0.081223 -0.085595 -0.085154 -0.094552 -0.094260 -0.098930 -0.103682 -0.103636 -0.093908 -0.098910 -0.089342 -0.079848 -0.065536 -0.056162 -0.051719 -0.037551 -0.028298 -0.019069 -0.014739 -0.005537 0.003660 0.012860 0.026954 0.026419 0.021022 0.020526 0.015164 0.014698 0.019128 0.018690 0.028035 0.027636 0.017491 0.017129 0.016782 0.011564 0.011239 0.006041 0.005731 0.005425 0.010009 0.014600 0.009436 0.009164 0.018667 0.013534 0.018179 0.013072 0.017744 0.012663 0.007592 0.012295 0.007240 -0.002692 0.002025 0.006744 0.001700 -0.003342 -0.003503 0.001218 0.005939 0.000897 0.005624 0.005472 0.005324 0.005180 0.000157 0.000018 -0.000121 -0.000260 -0.005284 0.004341 -0.005567 0.008940 0.008802 0.003788 0.003662 0.008422 0.013189 0.017967 0.008108 0.017791 0.012838 0.007895 0.007843 -0.001971 0.002865 -0.002064 0.002773 0.002729 0.002686 -0.002238 -0.002280 -0.007208 -0.002373 -0.007309 -0.007367 -0.002547 -0.007497 -0.002685 -0.007644 -0.007725 -0.012696 0.001858 0.001762 0.001668 -0.008194 -0.003410 0.001371 -0.008499 0.001160 -0.003832 0.000941 0.005715 0.000725 0.005504 0.005404 0.000424 0.000328 0.005117 0.005026 0.009823 0.009744 0.009674 0.019379 0.019332 0.019302 0.019287 0.014405 0.009534 0.009555 0.009584 0.004737 -0.004990 -0.004953 0.014616 0.004893 -0.004826 0.000103 -0.004736 0.000189 -0.004653 0.005152 0.005194 0.015008 0.015066 0.020021 0.005457 0.005549 0.005645 0.000863 0.005849 0.010840 0.006072 0.011077 0.001439 0.001570 0.001703 0.006721 0.001976 0.002117 -0.002624 -0.002483 0.002540 0.002681 0.002824 0.002969 0.003117 -0.001616 0.003417 0.003569 0.003724 0.008766 0.008931 0.013988 -0.000480 0.009472 0.009664 0.014747 0.005191 0.010292 0.005632 0.010746 0.010984 0.006348 0.006600 0.001975 0.007119 0.007384 0.002772 0.007930 0.003327 0.008495 0.008785 0.004199 0.004500 -0.000079 0.000226 -0.004352 -0.004051 -0.008637 -0.008346 -0.008061 -0.002900 -0.002625 -0.007236 -0.002085 -0.001820 -0.001557 -0.001294 -0.005917 -0.005661 -0.005409 -0.010046 -0.009807 -0.009576 -0.019121 -0.009146 -0.013831 -0.018527 -0.018355 -0.013313 -0.013167 -0.022800 -0.017799 -0.017698 -0.012727 -0.007766 0.002072 -0.002740 -0.007555 -0.002608 -0.002547 -0.002488 0.002453 -0.002372 -0.002315 -0.002260 -0.007091 0.002725 -0.002110 -0.002062 -0.002016 -0.001972 -0.011697 -0.001896 -0.011632 -0.011610 -0.006714 -0.006707 -0.011590 -0.006715 -0.006729 -0.011632 -0.016546 -0.021473 -0.016650 -0.031376 -0.026593 -0.021831 -0.017088 -0.017243 -0.012528 -0.012708 -0.022666 -0.013107 -0.023095 -0.013566 -0.013816 -0.018962 -0.019239 -0.014648 -0.019838 -0.020160 -0.020498 -0.025738 -0.021231 -0.011857 -0.007378 -0.002904 0.001567 -0.008613 -0.013916 0.000306 -0.005008 -0.005442 -0.010765 -0.006328 -0.006781 -0.007240 -0.007704 -0.003291 -0.003765 -0.009125 -0.004726 -0.000330 -0.000818 -0.001308 0.007970 0.002603 0.002121 0.011409 0.015823 0.015366 0.010038 0.019370 0.014066 0.018541 0.018148 0.017770 0.017407 0.012174 0.011836 0.006623 0.001415 0.005977 -0.004108 0.000455 0.005019 0.004703 0.004390 0.004082 0.008661 0.008363 -0.001696 0.012663 0.012381 0.016993 0.011852 0.011604 0.011366 0.011137 0.006033 0.005819 0.005609 0.000520 -0.004569 -0.009661 -0.000110 0.004558 -0.000539 -0.000752 -0.000966 0.003704 -0.001392 -0.006489 0.003061 -0.002038 -0.002256 0.002409 -0.002692 0.011741 0.011531 0.006447 0.011136 0.010951 0.005891 0.005719 0.000668 0.000502 0.005220 0.009943 0.009790 0.009645 0.009507 0.009378 -0.000511 -0.005517 -0.010528 -0.005779 0.003849 -0.001172 -0.001309 -0.001448 0.003296 -0.001726 0.003020 0.002883 0.002750 -0.002266 -0.002399 -0.002535 0.002212 -0.002808 -0.002946 -0.007971 -0.008118 -0.003387 -0.008428 -0.008592 -0.008762 -0.004056 -0.004238 -0.004423 -0.004611 -0.009688 -0.005004 -0.000324 -0.000529 -0.000734 -0.000940 -0.001147 -0.006239 -0.001567 0.003103 -0.001993 0.002678 0.002467 -0.007510 0.006927 0.001834 0.001626 0.001419 0.001214 -0.003874 -0.004082 0.000591 -0.004503 0.000167 0.009721 0.009515 0.009317 0.004243 -0.000828 -0.001016 0.003680 0.008379 0.003316 0.008025 0.007856 0.012577 0.007541 0.007396 0.012140 0.016894 0.016779 0.016677 0.021473 0.021403 0.026235 0.016437 0.016420 0.021300 0.016431 0.011575 0.011612 0.016544 0.006836 0.006903 0.002091 0.011933 -0.002635 0.007215 0.007303 -0.007255 -0.002283 0.007570 -0.002105 0.002869 0.002962 0.003057 0.003155 0.008139 0.008246 0.003476 0.008477 -0.001167 -0.005928 -0.000926 -0.000809 -0.005576 -0.000580 -0.000468 0.004527 -0.005127 -0.005016 -0.000026 0.000081 0.005071 0.005182 0.005297 0.000532 0.000652 0.005657 0.000898 -0.008745 -0.003742 0.001257 0.001374 0.001492 0.006494 0.001735 0.001860 0.006872 0.007004 0.002259 0.002400 0.002542 -0.002197 -0.006938 0.002967 -0.001777 0.003245 0.003386 -0.006239 -0.006100 -0.010851 -0.005843 -0.005723 -0.000724 -0.005494 -0.010268 -0.005283 -0.005187 -0.000210 -0.005002 -0.000030 -0.004826 0.000142 -0.004657 0.000307 -0.014264 -0.019080 -0.019027 -0.014105 -0.009196 -0.014062 -0.018940 -0.014065 -0.014086 -0.014119 -0.014164 -0.009336 -0.004516 -0.004584 0.000229 0.000157 0.000086 0.000015 -0.004940 -0.005016 -0.009979 -0.010067 -0.010163 -0.010267 -0.005496 -0.005614 0.013800 0.008806 0.003818 -0.001166 -0.001267 0.003514 -0.001469 -0.001570 0.003213 0.007997 0.003021 0.002931 0.012611 0.002766 0.002691 0.002618 -0.002336 -0.007293 -0.007371 -0.007456 -0.007547 -0.007644 -0.002863 0.001915 0.001811 0.006592 0.006495 0.011287 0.011205 0.006248 0.001296 0.010997 0.001171 0.010882 0.005950 -0.003860 0.000977 0.000932 0.000888 0.010612 0.005693 0.000779 -0.004135 0.000716 -0.004200 0.000648 -0.004271 0.000574 0.000535 0.010265 0.010236 0.010215 0.005318 0.005310 0.005306 -0.004461 -0.004464 -0.004471 -0.004481 -0.004495 0.000371 0.010121 0.000344 0.000335 0.010095 0.000326 -0.004557 -0.009445 -0.009457 0.005176 0.000277 0.000262 0.005131 0.005121 0.009999 0.010001 0.010011 0.014914 0.005177 0.005212 0.000368 0.000408 0.005332 0.000493 0.000538 -0.004300 0.005510 -0.004212 0.000716 0.000759 -0.004080 0.005729 0.005774 -0.003943 0.005872 0.010808 0.005985 -0.003717 0.001230 0.001294 0.001359 -0.003459 -0.003396 -0.003335 -0.003277 -0.003222 -0.003170 -0.008004 -0.007961 -0.003041 -0.007891 -0.007864 -0.007843 -0.007828 -0.002937 -0.002931 0.001956 0.001961 0.011735 0.011751 0.011777 -0.002840 0.006961 0.007000 0.002161 0.007091 0.002260 -0.002570 -0.002518 -0.007352 0.002460 0.007390 0.002558 0.002612 -0.002215 -0.007045 -0.002112 0.002819 -0.002016 -0.001968 0.002962 -0.001874 -0.006711 -0.001785 -0.001746 0.003177 0.003218 0.008146 -0.001572 0.008245 -0.001467 0.003472 -0.001354 -0.006182 -0.001246 -0.001196 -0.001147 -0.001098 0.003833 -0.001000 -0.000950 -0.000901 -0.005737 -0.010577 -0.005658 -0.015396 -0.005611 -0.000714 -0.000702 -0.005574 -0.005568 -0.010449 -0.005572 -0.005583 -0.000714 -0.000730 -0.005631 -0.000769 -0.000791 -0.000814 -0.000837 0.004023 0.004002 0.008869 0.003974 0.013736 0.013740 0.008872 0.008895 0.004042 -0.000808 0.004109 0.004146 -0.005582 -0.000662 0.004257 -0.000589 -0.000551 0.009255 0.004416 0.009349 0.004522 0.004582 0.004647 0.004715 0.009671 0.019519 0.009847 0.009951 0.019832 0.005309 0.010326 0.005584 0.015499 0.010775 0.006059 0.016000 0.011303 0.001731 0.006813 0.002132 0.012105 0.007436 0.007657 0.007884 0.003234 0.008355 0.003715 0.008845 0.004215 0.004473 0.009618 0.000119 0.019925 0.005559 0.015617 0.006152 0.006461 0.001891 0.002206 0.002523 0.002843 -0.001720 0.013253 0.003816 0.004150 0.009372 0.004834 -0.004585 0.000645 0.005875 0.011111 0.001703 0.002065 -0.002455 -0.002094 -0.001734 0.003508 0.008754 0.004238 0.009494 0.004990 0.010258 0.015535 0.015940 0.016359 0.016791 0.022121 0.032353 0.023077 0.028471 0.029005 0.039331 0.035038 0.035658 0.026539 0.027210 0.032788 0.033509 0.034258 0.030151 0.030953 0.026897 0.013095 0.009072 0.014825 0.015705 0.006831 0.012615 0.003757 -0.000214 -0.009069 -0.013048 -0.026805 -0.035701 -0.044626 -0.043821 -0.057703 -0.061866 -0.070963 -0.075236 -0.084455 -0.088860 -0.098222 -0.102782 -0.102544 -0.102390 -0.102321 -0.092569 -0.082894 -0.073287 -0.068625 -0.059136 -0.044812 -0.035409 -0.026036 -0.006916 0.002430 0.011778 0.011368 0.020735 0.025236 0.019989 0.009875 0.009537 0.009207 0.013769 0.008574 0.008270 0.003089 0.002795 0.002503 0.002213 0.001925 0.001638 0.006237 0.001073 0.000794 0.005400 0.005126 0.009740 0.009478 0.004341 0.008974 0.008732 0.003612 0.008264 0.008038 0.007819 0.012490 0.012288 0.016980 0.007034 0.011746 0.011584 0.011431 0.001520 0.006262 0.006125 0.005993 0.000983 0.005741 0.010503 0.005507 0.005399 0.000412 0.000308 0.000206 0.014755 0.009781 0.014582 0.004744 -0.000206 0.004611 -0.000336 0.009370 0.004430 0.004379 0.004331 -0.000597 -0.000642 -0.000687 -0.000733 -0.000780 -0.000827 -0.000875 0.003961 -0.000968 0.003870 -0.005941 -0.001105 -0.001154 -0.001203 -0.015906 -0.015970 -0.011163 -0.006365 -0.001573 -0.006550 -0.011532 -0.006756 -0.001986 -0.002101 0.007550 -0.007212 -0.007329 -0.002567 -0.007576 -0.007707 -0.002961 -0.003101 -0.013011 -0.008281 -0.003557 -0.003720 -0.008770 -0.004060 0.005532 0.000475 -0.004580 -0.009640 -0.014708 -0.005136 -0.005336 -0.005540 -0.005749 0.003805 -0.001290 0.003382 0.008057 -0.001913 0.007651 0.002570 -0.007394 -0.002711 -0.007799 -0.003125 0.001546 0.006218 0.006012 0.010695 0.010502 0.020086 0.000383 0.000216 -0.004835 -0.009889 -0.010068 -0.010256 -0.000683 -0.010648 0.003799 0.008481 -0.001482 0.003206 0.007897 0.007710 0.007529 0.002471 -0.002586 0.007008 0.011723 0.016448 0.011419 0.016167 0.016045 0.011052 0.001184 0.001085 0.000987 0.005773 0.010565 0.005597 -0.004250 0.000551 0.000469 0.000388 -0.004578 -0.004663 -0.004752 -0.004845 -0.009826 -0.009932 -0.014929 -0.010171 -0.005421 -0.010444 -0.010591 0.003905 0.003752 0.003602 0.003455 0.003311 0.003170 0.007915 0.007783 0.007658 0.007538 0.012309 0.012207 0.012114 0.012031 0.007075 0.016776 0.016723 0.011800 0.011771 0.006867 0.011738 0.006850 0.006851 0.001975 -0.002901 -0.002894 -0.002890 0.006880 0.002003 0.002012 0.006907 0.006924 0.002062 -0.002798 -0.007660 -0.007645 -0.007636 -0.002750 -0.012517 -0.007643 -0.007660 -0.007682 -0.002827 -0.002859 0.001991 -0.002925 -0.002959 0.001888 -0.007916 -0.012842 -0.008011 -0.008070 -0.008136 -0.013093 -0.013176 -0.013271 -0.013376 -0.008609 -0.008733 -0.008864 -0.004118 -0.014028 -0.009297 -0.009458 -0.009627 -0.009804 -0.014873 -0.005303 -0.005504 -0.020363 -0.015702 -0.020822 -0.016192 -0.026227 -0.016747 -0.017050 -0.017366 -0.027466 -0.022935 -0.018424 -0.023696 -0.019220 -0.014760 -0.015196 -0.010760 -0.011218 -0.006801 -0.007273 -0.002867 0.001536 0.001056 0.005462 0.000103 -0.000371 -0.005729 -0.001324 0.003080 0.007486 0.002131 0.006545 0.001197 0.000733 0.010039 0.009584 0.004254 0.013579 0.013148 0.017611 0.022089 0.016817 0.011559 0.011195 0.020608 0.015386 0.019945 0.019636 0.019344 0.019068 0.013923 0.013674 0.018320 0.022982 0.017895 0.012822 0.007760 0.007589 0.007424 0.007265 0.007112 0.006964 -0.002945 0.006679 0.006541 0.006408 0.006281 -0.003610 0.006033 0.005913 -0.003970 0.000795 0.005561 0.005447 0.010223 0.005238 0.000258 0.000162 0.000066 -0.000029 0.004759 -0.005101 -0.005197 -0.005297 -0.005402 -0.005511 -0.010509 -0.005747 -0.005874 -0.001122 -0.001255 -0.006273 -0.011296 -0.011445 -0.011603 -0.002003 -0.002172 -0.007227 -0.007405 -0.002704 0.001995 -0.003073 0.001624 -0.013213 -0.013409 -0.008732 -0.013831 -0.018940 -0.004530 -0.009659 -0.019681 -0.005298 -0.010456 -0.010739 -0.011031 -0.011331 -0.011642 -0.002193 -0.007399 -0.002843 -0.003173 -0.003506 0.001043 0.005592 0.000378 0.000048 0.004602 -0.000608 0.008834 -0.001253 0.003310 0.007877 0.007566 0.007261 0.002079 0.006666 0.006374 0.010972 0.000927 0.010419 0.015035 0.005012 0.004761 0.009398 0.014043 -0.000837 0.008703 0.003598 0.008264 0.003169 0.012728 -0.002122 0.007446 0.002369 0.007061 0.006875 0.011579 0.011408 0.006363 0.006208 0.006057 0.010795 0.005775 0.005643 0.005515 0.000509 -0.004497 0.005145 0.005023 0.009789 0.004796 0.009575 0.009477 0.004503 0.014185 0.009227 0.009161 0.013986 0.009055 0.013899 0.004103 0.008962 0.004060 0.008930 -0.000845 -0.000852 -0.000860 -0.000869 -0.000878 0.003995 0.003989 0.003985 -0.000899 -0.000901 -0.000902 -0.000905 -0.005792 -0.005800 -0.000929 -0.005827 -0.000961 -0.000981 -0.001001 -0.005906 -0.001048 -0.001074 0.003782 -0.006011 -0.010924 -0.001195 -0.001234 -0.001275 -0.001316 -0.001359 0.008365 0.003444 0.003410 0.003379 -0.001533 -0.006447 -0.006482 -0.006522 -0.001684 0.008037 -0.001772 0.003070 -0.001853 0.002990 0.002951 0.002915 0.002882 -0.002034 0.002817 -0.002097 -0.002130 0.002720 0.007573 0.002663 0.002640 0.002618 0.002599 0.002583 -0.007200 -0.007221 0.002521 -0.002388 -0.002415 -0.002443 -0.002474 -0.007390 -0.007429 -0.007474 -0.007525 -0.012467 -0.017418 -0.017500 -0.012713 -0.017704 -0.012942 -0.013075 -0.018102 -0.003608 -0.008654 -0.013706 -0.004118 -0.009186 -0.014261 -0.014464 -0.014678 -0.010021 -0.005373 -0.020264 -0.010753 -0.011018 -0.001525 -0.006685 -0.011850 -0.007257 -0.007555 -0.002974 -0.013048 -0.008481 -0.008805 -0.009136 -0.009474 -0.000053 -0.005284 -0.000750 -0.010870 -0.006347 -0.006713 -0.011968 -0.002581 -0.002965 -0.008235 -0.008627 0.000741 -0.009427 -0.000066 0.004411 0.004008 0.003607 -0.001674 -0.006956 -0.007361 -0.007771 -0.013072 -0.008616 -0.009051 -0.009493 -0.000175 -0.005510 0.008687 0.008240 0.002915 -0.002408 0.002036 0.001597 -0.003725 0.000719 0.005163 0.004727 0.009179 0.003871 0.003450 0.003032 0.002616 0.007087 0.006679 0.006277 0.000996 0.000600 0.000205 -0.005074 -0.000590 0.003894 0.003497 0.007987 0.007600 0.007219 0.006844 0.011359 0.001231 0.005756 0.005402 0.000168 0.004703 0.009241 0.008903 0.003689 -0.001523 0.003033 0.002706 0.002382 0.006944 0.011512 0.006321 0.010904 0.010612 0.015212 0.014941 0.019566 0.009556 0.019089 0.009103 0.008892 0.008688 0.008491 0.008302 0.013003 0.012831 0.012670 0.012519 0.007495 0.007361 0.012117 0.011999 0.016775 0.006913 0.011709 0.001862 0.001785 -0.003175 0.006515 0.016210 0.016150 0.011220 0.006300 0.001384 0.016006 0.001337 0.001321 0.006190 0.001296 0.006171 0.001284 0.006165 0.011052 0.015947 0.015972 0.011127 0.011174 0.016115 0.016185 0.016268 0.016365 0.016476 0.016600 0.016738 0.021774 0.021944 0.017248 0.017450 0.007899 0.013006 0.013241 0.008602 -0.005798 -0.000667 0.004464 -0.000169 -0.004803 -0.004556 -0.009197 0.005690 -0.003838 0.001282 0.001520 0.001759 0.006883 0.007129 0.002497 0.007635 -0.001872 -0.006497 -0.001360 -0.005991 -0.015512 -0.005509 -0.005280 -0.005054 -0.004833 0.000269 0.005371 0.005593 0.005819 0.010935 0.011175 -0.003227 -0.007864 -0.017391 -0.017165 -0.012069 -0.016751 -0.011678 -0.006616 -0.006443 -0.006275 -0.006113 -0.001072 -0.000915 0.009008 0.004288 0.004454 0.009509 0.004803 0.000101 0.000284 -0.004418 0.000645 -0.008943 -0.003887 -0.003718 -0.008437 -0.013162 -0.013014 -0.017761 -0.012755 -0.017527 -0.012546 -0.002691 0.002278 -0.002520 -0.002435 0.002531 -0.002268 0.002698 -0.002101 0.002866 -0.006816 0.003031 -0.001770 0.003195 0.003278 0.008248 0.008341 0.003557 0.008544 0.018422 0.008780 0.018680 0.013944 0.009220 0.009387 0.009562 0.009745 0.005052 -0.004521 0.000555 0.000747 -0.003945 0.006013 0.001323 0.006402 0.011487 0.006813 0.011913 0.007255 0.007487 0.012608 0.007973 0.013112 0.008494 0.013651 0.013935 -0.000421 -0.000126 0.009938 0.010241 0.015437 0.010878 0.006328 0.016435 0.016788 0.012270 0.017531 0.013039 0.013441 0.008970 0.009391 0.014704 0.005376 0.015589 0.016048 0.006751 0.002344 -0.002061 -0.001584 -0.001108 -0.000633 -0.000158 0.010084 0.000799 0.011050 0.021311 0.021821 0.017465 0.013124 0.003910 0.009351 0.000147 -0.004172 -0.003610 -0.007936 -0.002500 -0.006835 -0.016059 -0.020412 -0.044318 -0.043841 -0.058053 -0.062544 -0.071971 -0.086342 -0.091017 -0.090883 -0.090824 -0.095725 -0.105589 -0.110656 -0.110931 -0.116183 -0.111762 -0.107434 -0.093428 -0.089266 -0.080295 -0.071390 -0.062545 -0.053751 -0.035234 -0.016746 -0.003156 -0.004220 0.014247 0.013191 0.017030 0.015999 0.024749 0.018867 0.017886 0.021803 0.020854 0.015038 0.014119 0.008328 0.017195 0.016309 0.015436 0.009692 0.013724 0.012884 0.016938 0.011238 0.015315 0.009638 0.013736 0.017845 0.012202 0.011452 0.020480 0.019757 0.019050 0.023244 0.012804 0.017027 0.006612 0.015739 0.005342 0.009602 0.004103 0.018142 0.012660 0.016957 0.016384 0.015825 0.015279 0.019629 0.019112 0.018610 0.013240 0.022533 0.007425 0.016743 0.016306 0.015884 0.005706 0.015069 0.014677 0.014296 0.009044 0.013567 0.008333 0.012874 0.017426 0.017109 0.011921 0.001860 0.016220 0.015941 0.015676 0.020307 0.020072 0.019853 0.029418 0.024356 0.024198 0.019177 0.014171 0.009177 0.023726 0.018759 0.023576 0.023528 0.018616 0.008835 0.008829 0.003947 0.008836 0.013733 0.013756 0.013792 0.008954 0.004124 0.013950 0.009135 -0.005441 -0.000485 0.004471 0.009430 0.004630 0.009601 0.009696 0.009799 0.009910 0.005145 0.015037 0.010289 0.005550 0.005699 0.000969 0.006008 0.006167 0.011216 0.006506 0.006686 0.001987 0.007058 -0.002518 -0.002327 -0.011907 -0.001960 -0.006667 0.008157 0.008335 0.008520 -0.001055 -0.005748 -0.010445 -0.005383 -0.010094 -0.009929 -0.009772 -0.009623 -0.009482 -0.014233 -0.009228 -0.009114 -0.013892 -0.008914 -0.008827 -0.003863 0.001098 -0.003709 0.001250 0.006209 0.006290 0.001491 -0.003306 -0.003221 0.006628 0.001831 -0.002964 -0.002878 -0.007678 0.002167 0.002247 0.002328 0.002411 0.002496 -0.002301 0.002668 0.002755 0.012613 0.017597 0.012828 0.012953 0.013089 0.013236 0.008510 0.003791 0.003959 0.009015 0.004309 0.004492 -0.000206 0.004864 0.014822 0.000372 0.000575 0.000778 0.000982 0.001186 -0.003492 -0.003289 -0.007973 0.001988 -0.007585 -0.002513 -0.002326 0.002743 0.002930 0.003119 -0.001573 0.008386 0.008583 0.003904 0.004112 0.004323 0.009422 -0.005007 0.004979 0.010086 0.010317 0.010557 0.010805 0.011063 0.016213 0.001841 -0.002761 -0.007366 -0.007093 -0.011710 -0.016336 -0.011208 -0.006090 -0.005860 -0.005635 -0.005415 -0.005200 -0.009872 -0.004785 -0.004586 -0.004391 -0.009083 -0.004015 -0.003834 -0.003657 -0.008366 -0.008198 -0.008037 -0.007883 -0.017503 -0.012486 -0.017247 -0.017139 -0.017045 -0.016964 -0.021782 -0.021734 -0.026588 -0.021696 -0.016822 -0.021730 -0.021772 -0.021832 -0.017026 -0.017118 -0.012341 -0.012457 -0.002816 -0.012713 -0.012853 -0.008120 -0.008277 -0.008441 0.001156 -0.008782 -0.004075 -0.009140 -0.004445 -0.009521 -0.004837 -0.009924 -0.005253 -0.005469 -0.010574 -0.015688 -0.011047 -0.006415 0.003096 -0.006927 0.002581 0.002322 0.002066 -0.003073 0.001554 -0.003586 -0.003845 -0.004107 0.000512 0.000246 -0.000018 0.004601 0.009224 -0.000798 0.003832 0.008465 0.017989 0.022644 0.022434 0.022242 0.022069 0.021914 0.016894 0.011887 0.016658 0.021443 0.026246 0.026186 0.021264 0.021244 0.026126 0.021261 0.011529 0.006692 0.006743 0.006801 0.006864 0.006933 -0.002761 -0.002689 0.007149 0.002341 0.007303 0.002503 0.002589 -0.002207 -0.002121 0.007732 0.002939 -0.001852 0.003124 -0.001666 -0.001573 -0.006365 -0.001394 -0.001309 -0.001225 0.003742 0.003829 0.008802 0.008899 0.009003 0.013999 0.009238 0.004485 0.004619 0.004758 0.004900 0.005047 0.005197 0.010236 0.010400 0.010572 0.015636 0.010946 0.016033 0.001597 0.001815 0.006918 0.007142 0.002489 0.002722 -0.006811 -0.006582 -0.006358 -0.006140 -0.010810 -0.010606 -0.015294 -0.000459 -0.000276 -0.014746 -0.014576 -0.019302 -0.009392 -0.014141 -0.014019 -0.009024 -0.008920 -0.003940 -0.008731 -0.008646 -0.003683 0.001276 -0.003531 -0.013226 -0.013163 -0.003344 -0.003295 0.001635 -0.003201 0.001728 -0.003110 -0.007950 -0.003029 -0.002995 -0.007846 -0.012705 -0.012690 -0.007801 0.001965 0.001965 0.006850 0.011741 0.001990 -0.002876 0.002024 0.002042 -0.002823 0.002078 0.006981 0.002122 0.002148 0.007060 0.002210 0.007130 0.002287 0.002331 0.007260 0.002428 0.002482 0.002537 0.007479 0.007543 -0.002155 0.002797 0.007752 0.002945 0.003025 -0.001777 0.008071 0.008159 0.008253 0.013238 0.013350 0.013473 0.013607 0.008868 0.004137 -0.000591 0.009333 0.004612 0.009663 -0.004813 0.000242 -0.004471 0.005465 0.010521 0.010702 0.001124 0.011083 0.006399 0.006604 0.001931 0.002143 0.002358 0.007458 -0.002088 -0.006751 0.003232 -0.006319 -0.001222 -0.005895 -0.010572 -0.005491 -0.010182 -0.014881 -0.009824 -0.009660 -0.009504 -0.009355 -0.004331 -0.004194 -0.008944 -0.008818 -0.003815 -0.003700 -0.003587 -0.003477 -0.008255 -0.008155 -0.003178 -0.003087 0.011653 0.001983 0.002082 0.007067 0.007174 0.002402 0.002517 0.002634 0.002753 0.007758 0.007886 0.003137 0.003273 0.013181 0.003564 -0.001167 -0.001014 -0.005747 -0.005600 -0.005458 -0.010204 -0.014958 -0.014842 -0.014737 -0.009761 0.000092 0.000176 0.000261 -0.004539 -0.009342 0.000499 0.000573 0.000647 -0.009046 0.000789 0.005741 -0.003955 -0.008769 -0.008707 -0.008653 -0.008605 0.001204 -0.003639 0.001283 -0.003561 0.006244 0.001401 0.006328 0.001492 0.016194 0.021141 0.011453 0.001775 0.001866 0.006843 -0.002827 -0.007614 -0.002640 -0.002553 -0.002467 -0.002384 -0.002302 -0.007106 -0.002149 0.002807 0.002882 0.002958 0.007921 -0.001761 -0.001677 0.003290 0.003376 0.013232 0.008447 -0.001214 -0.005993 -0.001008 -0.005793 -0.000814 -0.015372 -0.015291 -0.015222 -0.010282 -0.005351 -0.000424 0.004503 -0.005218 -0.010060 -0.005142 -0.005113 -0.000204 -0.009947 -0.000162 -0.000145 -0.005012 -0.014768 -0.005000 -0.009888 -0.009900 -0.000152 0.004711 -0.000189 0.004678 -0.000219 -0.000232 0.004639 0.004630 0.009508 0.004627 0.004633 -0.000241 -0.005115 0.004658 0.004668 0.004681 0.009582 0.004723 0.014520 0.004794 0.009723 0.004892 0.009833 0.005014 0.005084 0.000273 0.000347 -0.009346 -0.004396 -0.004333 -0.004274 0.000666 0.000722 0.005663 0.005725 0.010675 0.000982 0.005942 0.001139 0.001221 -0.003580 0.001383 -0.003420 0.001543 0.006506 0.011475 0.006685 0.006785 0.006891 0.007002 -0.002649 -0.007418 -0.007309 -0.016975 -0.016886 -0.026580 -0.031411 -0.026501 -0.021612 -0.021625 -0.016773 -0.011934 -0.011989 -0.007170 -0.007241 -0.007318 -0.007401 -0.007490 0.002182 -0.002795 -0.002891 -0.002990 -0.003090 -0.003194 0.001584 -0.008288 -0.003516 0.001254 -0.003744 0.005908 0.005796 0.010573 0.005591 -0.004270 -0.004367 0.000416 -0.009452 -0.019328 -0.009685 -0.000049 -0.000181 0.004571 0.004442 0.004317 -0.005572 0.008954 -0.000932 0.003833 -0.006052 -0.006173 0.003469 -0.001538 0.003221 0.003099 0.007864 -0.002017 -0.002131 -0.007132 -0.002370 0.002390 -0.007500 -0.007629 -0.002879 -0.007901 0.001724 0.001582 0.011209 0.001309 0.001178 0.001049 0.010688 0.020336 0.025117 0.025035 0.020090 0.010277 0.020009 0.019989 0.024870 0.015120 0.020034 0.015196 0.015256 0.010444 0.015408 0.020386 0.015612 0.015735 0.015871 0.001369 0.001519 0.001671 0.001824 0.001979 0.002135 0.007178 0.002458 0.007508 0.007680 0.007859 0.012928 0.013124 0.013331 0.023317 0.023554 0.018927 0.019199 0.024371 0.014912 0.020117 0.015570 0.020805 0.016288 0.021554 0.021953 0.017486 0.017918 0.018365 0.009058 0.014412 0.014893 0.020271 0.015897 0.021305 0.016962 0.017518 0.022972 0.023561 0.014401 0.019905 0.020542 0.021196 0.016984 0.032321 0.023266 0.028882 0.024753 0.025529 0.026327 0.027146 0.027987 0.028852 0.019973 0.020878 0.021801 0.027626 0.028589 0.029577 0.040357 0.036518 0.032709 0.028928 0.025171 0.016550 0.022595 0.014007 0.005431 0.001743 0.002941 -0.010511 -0.009320 -0.013021 -0.031384 -0.040005 -0.053544 -0.057358 -0.066105 -0.070022 -0.083765 -0.097578 -0.096819 -0.105909 -0.100435 -0.109696 -0.104396 -0.113834 -0.113599 -0.113458 -0.103643 -0.103682 -0.098922 -0.089361 -0.070106 -0.060677 -0.046415 -0.037075 -0.027765 -0.018479 -0.014092 -0.009716 -0.000465 -0.000982 0.013152 0.017529 0.017037 0.006790 0.001434 0.000962 0.000492 -0.004863 0.004431 -0.005808 -0.001399 -0.001876 -0.007238 -0.007722 -0.008213 -0.003826 -0.004327 0.000053 -0.005335 0.003925 0.003419 0.002917 0.002417 0.001919 0.001423 0.000927 -0.009335 0.004815 0.004316 0.003822 0.013098 0.012618 0.017032 0.011691 0.001477 0.010800 0.005480 0.005048 0.009505 0.013969 0.013561 0.013165 0.012779 0.007520 0.007151 0.006787 0.006430 0.006078 0.005731 0.005389 0.009935 0.009605 0.009283 -0.000799 -0.001113 -0.006313 -0.001749 0.002812 -0.002392 -0.012481 -0.003046 -0.008264 -0.003722 -0.008951 -0.019071 -0.019439 -0.010055 -0.005563 -0.010844 -0.006366 -0.006777 -0.016962 -0.002741 0.001710 -0.003606 0.000843 0.000409 0.004859 -0.000454 0.008884 0.008461 0.012929 0.012524 0.007246 0.011741 0.016246 0.020765 0.015533 0.010313 0.005103 0.004780 -0.000422 0.004143 0.008711 0.008403 0.012986 0.002927 0.007523 0.007241 0.002081 0.006691 0.011307 0.011048 0.001030 0.005664 0.010304 0.010068 0.000072 0.014497 0.014281 0.018962 0.013890 0.013713 0.013548 0.008510 0.008363 0.008224 0.017859 0.007972 0.012745 0.017528 0.007673 0.012477 0.012407 0.007463 0.012294 0.012251 0.017102 0.007315 0.007302 0.017064 -0.002465 -0.007344 -0.002460 -0.002463 -0.007352 -0.007363 0.002388 0.002373 -0.002524 0.002345 0.002332 0.007205 0.002316 0.007196 0.002315 0.012087 0.007218 0.007238 0.012149 0.017070 0.017120 0.017185 0.012381 0.007586 0.007682 0.007784 0.007892 0.003124 -0.001643 0.003358 0.003477 0.008483 0.003728 0.008744 -0.000885 0.013906 0.004288 0.009326 0.019255 0.014549 0.019622 0.019828 0.015166 0.015401 0.015649 0.011025 0.006411 0.011570 0.006970 0.012145 0.017329 0.012760 0.022853 0.018313 0.018673 0.023932 0.014559 0.019849 0.020273 0.010945 0.006510 0.002081 -0.002347 0.002991 -0.001436 -0.010748 -0.005417 -0.000091 -0.004533 -0.004094 -0.003659 0.001657 -0.007678 -0.007251 -0.001946 -0.001527 -0.005993 -0.000695 -0.010051 -0.009647 -0.014134 -0.013750 -0.013377 -0.008131 -0.007775 -0.002542 -0.007080 -0.006739 -0.016172 -0.010966 -0.010653 -0.000581 -0.005161 -0.009746 -0.009455 -0.009172 -0.013780 -0.013516 -0.008379 -0.008133 -0.017661 -0.012553 -0.017222 -0.017022 -0.016836 -0.011780 -0.011618 -0.006582 -0.011319 -0.001413 -0.011044 -0.001149 -0.005906 -0.000901 -0.005664 0.009104 0.004344 0.004471 -0.000282 -0.005035 -0.000025 -0.004782 0.000224 0.000347 0.005354 0.000598 0.000726 0.005738 0.000988 0.001122 0.006141 0.011165 0.011314 0.011473 0.016526 0.011824 0.007131 0.012213 0.012421 0.002871 0.003092 -0.006453 -0.006235 -0.010907 -0.015587 -0.020281 -0.015223 -0.019946 -0.010033 -0.000129 0.000008 0.000144 0.000280 -0.004467 0.000550 -0.004201 0.000813 0.000943 0.005959 0.001211 0.001348 -0.008281 -0.003266 -0.003137 -0.003011 0.001997 -0.002762 -0.002639 0.002366 0.007373 -0.002266 0.002745 0.007758 0.007894 -0.001732 0.003293 0.013205 0.008475 0.008637 0.013690 0.004102 0.009169 0.004477 0.009555 -0.004894 -0.009579 -0.009388 -0.004322 -0.004142 -0.003966 -0.008678 -0.013396 -0.008358 -0.008210 -0.017838 -0.007944 -0.012709 -0.002832 -0.007610 -0.007510 -0.007416 -0.007328 -0.007246 -0.007171 -0.007101 -0.007037 -0.006979 0.002841 0.002895 0.007836 0.003016 0.007965 0.008038 0.008117 0.013087 0.013184 0.023059 0.018302 0.018444 0.008833 0.018766 0.018946 0.019142 0.019354 0.009813 0.010049 0.005410 0.015426 0.010804 0.006190 0.011350 0.001867 0.002153 0.002442 0.002732 -0.001859 0.008200 -0.001271 -0.000974 0.009090 0.009394 0.004821 0.000253 0.000568 0.000884 0.001201 0.006403 0.006726 0.002170 0.002501 0.002833 -0.001716 -0.001383 -0.010818 -0.010495 -0.010180 -0.004990 -0.009572 0.000490 0.000784 0.001080 -0.003508 0.011437 0.011739 0.007168 0.007486 0.002926 0.013021 0.013359 0.008824 0.009180 0.014428 0.014803 0.010307 0.005820 0.006221 0.001744 -0.007616 -0.002331 0.002953 -0.001529 -0.001128 -0.000728 -0.000329 0.000070 -0.004415 -0.004019 0.001257 0.001650 0.002044 -0.007327 -0.006937 -0.006553 -0.001290 -0.010680 -0.005427 -0.005062 -0.004702 -0.004346 -0.008877 -0.008531 0.001575 -0.007853 -0.007520 -0.002309 -0.001984 -0.001661 -0.006222 -0.001022 0.004178 0.004498 0.009705 0.010036 0.010376 0.015608 0.001317 0.006564 0.011815 0.007309 -0.002076 -0.001694 -0.001314 -0.010702 -0.005448 -0.005082 -0.014488 -0.009255 -0.013797 -0.008582 -0.013143 -0.017714 -0.017416 -0.017133 -0.016863 -0.011724 -0.006595 -0.006355 -0.011004 -0.005894 -0.015441 -0.010349 -0.000382 -0.000183 0.000016 0.005099 0.010186 0.005514 0.005730 0.001067 -0.003595 0.006392 0.001732 0.001958 0.007069 -0.002466 0.002649 0.007766 0.008006 -0.001516 0.003613 0.003861 0.004112 0.004367 -0.000259 -0.004885 0.000253 0.005392 0.005650 -0.003854 -0.003594 0.006431 0.001810 -0.007694 -0.012321 -0.007189 -0.006948 -0.011596 -0.006486 -0.001381 0.003722 -0.000939 0.004167 0.004392 0.009505 0.014626 0.009991 0.005364 0.005626 -0.003875 -0.003612 0.001532 -0.003091 -0.002832 -0.012343 -0.002329 0.002799 -0.001838 -0.006477 -0.006237 -0.006002 -0.000889 0.004224 -0.005311 -0.009967 -0.009747 -0.009536 0.000436 -0.004244 0.005725 -0.003838 0.001248 0.001451 0.006540 -0.003018 -0.007695 0.002274 0.002477 0.002682 0.007773 0.007986 0.003323 0.003546 0.003771 0.008884 0.004237 0.009361 -0.005044 -0.009684 -0.004565 0.000551 -0.004101 -0.008756 -0.008535 -0.003436 -0.003225 -0.007900 -0.012582 -0.012390 -0.012208 -0.012037 -0.011875 -0.011724 -0.006698 -0.001677 -0.001542 -0.001409 -0.001276 -0.006029 -0.005902 -0.000897 -0.010544 -0.005548 -0.000556 -0.000449 -0.005226 -0.000240 -0.009906 -0.000044 0.000050 0.000144 0.000238 0.000332 -0.009341 -0.009255 -0.004291 -0.009100 0.000736 0.005689 0.005762 0.000956 0.001035 0.001115 -0.008572 0.001269 -0.003540 0.001415 -0.008280 0.006438 0.001626 0.006582 0.001777 0.001856 -0.002947 -0.002868 0.006976 -0.002710 -0.007514 -0.002556 -0.002484 -0.002415 0.002536 -0.002278 -0.007094 -0.002148 0.002796 0.002858 0.007807 0.002994 0.003067 0.003144 -0.001662 0.003300 0.003380 -0.001421 -0.006223 -0.006147 -0.006075 -0.006008 -0.001063 0.003882 0.003946 0.013781 0.008975 0.009061 0.009155 0.009256 0.009365 0.004597 -0.000167 0.004838 0.000078 -0.004682 0.000323 0.005327 0.000568 0.000694 0.000820 0.010715 0.010850 0.015879 0.016037 0.016208 0.016393 0.016591 0.011919 0.007257 0.012368 0.002839 0.012847 -0.001554 0.003580 0.008717 0.008977 0.004360 0.004631 -0.004862 0.005177 0.000568 0.000844 0.006004 -0.003483 0.006564 0.001963 0.012017 0.007428 0.002846 0.008034 0.008344 0.013546 0.008991 0.004443 -0.004985 0.000235 0.005455 0.005795 0.001256 -0.003281 0.001946 -0.002592 0.002635 -0.001904 -0.001560 0.003666 -0.000873 -0.000528 0.004700 0.005048 0.005401 0.000874 0.006115 -0.003290 0.001954 -0.002569 -0.007093 -0.001856 -0.001504 0.008615 -0.000795 -0.000438 -0.000081 0.000275 0.005516 0.005878 0.011128 0.006620 0.007001 0.002504 -0.001991 -0.001603 0.008551 0.004060 0.004456 -0.000028 0.005257 0.010545 0.006074 0.006493 0.002032 0.002458 0.007769 0.008203 0.008644 0.009092 0.014431 0.010014 0.020258 0.020750 0.021260 0.021787 0.027217 0.032668 0.038147 0.033890 0.039429 0.045000 0.040841 0.036715 0.042388 0.033444 0.034296 0.025408 0.031194 0.022353 0.013531 0.004719 0.010564 0.011534 0.002745 -0.006041 -0.005065 -0.028513 -0.032448 -0.046179 -0.055063 -0.068877 -0.072981 -0.091797 -0.091152 -0.110120 -0.114527 -0.114145 -0.118741 -0.118552 -0.123345 -0.128240 -0.133242 -0.123702 -0.114265 -0.104922 -0.095666 -0.086490 -0.072501 -0.053689 -0.044689 -0.030842 -0.017021 0.001671 0.000827 0.014637 0.013806 0.022755 0.021955 0.021173 0.015524 0.014773 0.014033 0.008422 0.012585 0.006991 0.016054 0.010479 0.004912 0.004234 0.013327 0.012663 0.012010 0.016250 0.015620 0.015003 0.009515 0.018686 0.013221 0.007767 0.016971 0.011537 0.015881 0.020238 0.024612 0.019238 0.018764 0.018306 0.017863 0.007667 0.012129 0.016601 0.016203 0.015818 0.010562 0.005315 0.014725 0.014379 0.018929 0.013726 0.018303 0.013127 0.027497 0.027239 0.027003 0.031674 0.026603 0.026438 0.021410 0.021285 0.021177 0.021087 0.030782 0.025851 0.025825 0.016053 0.020946 0.025856 0.030788 0.025977 0.021188 0.021300 0.021430 0.021578 0.021744 0.021927 0.012361 0.007689 0.012792 0.003253 0.008369 0.003723 0.003965 0.009094 0.009347 0.009607 0.004992 0.010148 0.005545 0.005830 0.001237 0.001528 0.001821 0.002115 0.002411 -0.002175 0.007889 0.003307 0.003613 -0.000963 0.004229 0.004540 0.004854 0.010057 0.000617 -0.003940 -0.008499 -0.003298 0.001901 -0.002667 -0.007237 -0.006929 -0.006627 -0.006330 -0.015806 -0.010644 -0.005490 -0.000341 -0.000077 0.005072 0.000457 0.000726 0.000996 0.001267 0.011307 0.001820 -0.002782 -0.002501 -0.002223 -0.001946 -0.001672 0.003486 -0.001122 -0.005731 -0.010344 -0.005198 -0.000056 0.005086 0.000464 -0.009042 -0.013671 -0.003660 -0.013187 -0.008074 -0.007851 -0.007635 -0.012309 -0.002341 -0.002143 -0.001947 0.003131 0.008212 -0.001352 -0.006033 -0.005835 -0.005642 -0.010338 -0.005275 0.004669 -0.000036 0.000143 -0.009446 -0.004391 -0.004223 -0.008943 -0.003902 -0.008632 -0.003602 0.001426 0.001571 0.006600 0.006752 0.002025 0.002184 0.007228 0.012279 0.007571 0.007754 0.003060 0.008136 0.003450 -0.006116 -0.001036 -0.000840 0.009123 0.004441 0.004647 0.009741 0.005075 0.000414 -0.004248 -0.004029 0.001071 -0.003596 -0.003383 -0.003172 -0.007848 -0.007646 -0.007450 -0.002377 -0.007074 -0.006893 -0.011601 -0.006551 -0.006390 -0.006235 -0.010969 -0.010828 -0.010696 -0.020340 -0.015350 -0.005488 -0.005399 -0.019967 -0.019899 -0.014963 -0.014924 -0.019781 -0.024655 -0.014897 -0.014919 -0.010070 -0.010113 -0.005281 -0.010221 -0.010285 -0.010358 -0.015324 -0.010534 -0.010637 -0.010748 -0.015753 -0.006119 -0.011142 -0.016174 -0.016335 -0.011626 -0.016695 -0.012009 -0.021985 -0.012444 -0.012681 -0.003160 -0.003411 -0.003663 -0.003919 -0.004179 -0.009325 -0.004712 0.004782 -0.000372 0.004241 0.008858 0.008598 0.008346 0.003216 0.012741 0.002740 0.002510 0.012050 0.002064 0.011615 0.006524 0.006323 -0.003641 0.005928 0.005733 0.005544 0.000475 0.005174 -0.004774 0.004810 -0.000254 -0.000435 -0.000615 -0.000797 -0.000979 -0.001161 0.013307 0.003366 0.003196 0.003029 -0.002020 0.007582 0.007422 0.007268 0.007120 0.006978 0.006841 0.001827 0.016350 0.011350 0.011244 0.006263 0.011056 0.010973 0.006016 0.005948 0.001000 0.000938 0.000876 0.000815 0.000754 -0.004189 -0.004253 0.000564 0.000498 0.000432 0.005251 0.005189 0.005133 0.000196 0.005027 0.000095 0.000047 -0.000001 -0.004933 -0.000102 0.004730 -0.005087 0.004629 -0.000304 0.009415 0.004490 0.009336 0.004422 0.014164 0.014150 0.014147 0.009272 0.009289 0.014197 0.019118 0.014286 0.014350 0.014425 0.014513 0.019497 0.009845 0.005085 0.005213 0.005346 0.005483 0.000741 0.005767 -0.003854 -0.003710 0.001315 0.001456 0.006483 0.006632 0.006786 -0.002823 0.007103 0.007266 0.007435 -0.002158 -0.006868 -0.016469 -0.011430 -0.011286 -0.011150 -0.015908 -0.001143 -0.010800 -0.005813 -0.005714 0.004147 -0.015292 -0.010324 -0.010248 -0.005297 -0.005234 0.004592 -0.000230 -0.005052 -0.000110 0.004832 0.009778 0.004963 0.005037 0.005116 0.010082 0.010173 0.010272 0.005496 0.000724 0.000837 0.005834 -0.003815 0.001184 -0.003584 0.001413 -0.008240 -0.008133 -0.003148 -0.003050 0.001930 0.011795 -0.002750 0.002239 -0.002538 0.002450 -0.007211 -0.007111 -0.007016 0.002841 0.012700 0.017686 0.012918 0.022814 0.013192 0.008465 0.008629 0.003916 -0.000794 -0.005504 -0.005335 -0.010054 -0.014782 -0.004870 -0.004729 0.005175 -0.004453 -0.009200 -0.004187 0.000823 -0.003935 -0.003811 -0.008576 -0.008463 0.001411 -0.003366 -0.003262 0.001724 -0.003057 -0.002957 0.006909 -0.002755 0.002230 -0.007434 -0.002453 -0.007242 -0.007153 -0.002186 -0.002105 -0.006909 -0.006835 -0.006767 -0.006705 -0.011531 -0.001716 -0.001670 -0.006509 -0.006470 -0.001552 -0.001520 -0.011256 -0.006350 0.003434 -0.001430 0.003472 0.008378 0.008406 0.013325 0.013371 0.013429 0.018381 0.008697 0.008788 0.013770 0.008996 0.009113 0.004353 0.009365 -0.005151 0.004749 0.004885 0.009909 0.000288 0.005321 -0.004295 -0.009030 -0.013772 -0.013642 -0.018407 -0.013420 -0.018211 -0.013250 -0.013184 -0.008244 -0.003312 -0.003266 0.001661 -0.003178 -0.003136 -0.003097 -0.007945 -0.003030 -0.007887 -0.007866 -0.007851 -0.002959 -0.002954 -0.002951 -0.002950 0.001932 0.006816 -0.002946 0.001941 -0.002939 0.001948 -0.002933 0.006837 -0.012692 -0.002928 -0.007817 -0.012714 -0.007853 -0.007882 -0.003034 0.001811 0.006659 0.016395 0.016377 0.016373 0.016382 0.011521 0.011554 0.011596 0.006763 0.011704 0.006887 0.002076 0.007034 0.002231 0.002313 0.002397 0.002482 0.002571 0.007545 0.007641 0.002860 0.002965 0.003072 -0.001701 -0.001593 0.003399 0.003509 0.003622 0.008622 0.008745 0.018644 0.013906 0.009179 0.004460 0.009513 0.004806 0.009870 0.010059 0.005372 0.000690 0.000892 -0.003789 -0.003589 -0.003392 -0.008082 -0.003011 0.002058 -0.002639 0.002429 0.002615 0.007688 0.002999 0.003196 -0.001488 -0.006173 -0.005979 -0.000907 -0.005603 -0.005419 -0.010125 -0.005070 -0.009788 -0.004746 0.000292 -0.004437 -0.004286 -0.004139 -0.008880 0.010793 0.001170 0.006201 0.006352 0.011393 0.011559 0.006851 0.007032 0.007219 0.012297 0.002732 0.007822 0.012918 0.003373 0.013367 0.003835 -0.000809 0.004315 0.009442 0.009692 0.005067 0.005330 0.005597 -0.008783 0.006134 0.011288 0.006683 0.006968 -0.002510 0.002662 -0.001931 0.003242 -0.001350 -0.001060 0.004114 -0.000477 -0.000184 0.004992 0.000405 0.005586 0.001004 -0.008462 -0.003282 0.001894 -0.002695 -0.002403 -0.002113 -0.001825 -0.006422 -0.006141 -0.000980 0.004179 -0.005309 -0.009919 -0.004768 0.000378 -0.004243 -0.013752 -0.008620 -0.013263 -0.013033 -0.012815 0.002046 0.007140 0.007356 0.002694 0.002918 0.003145 -0.001510 -0.001282 0.003829 -0.005709 -0.000599 -0.000375 0.014502 0.000087 0.010091 0.000568 0.005698 0.005948 0.011087 0.011352 0.011626 0.011909 0.017086 0.022278 0.022604 0.008296 0.008648 0.004123 0.004485 0.009735 0.005225 0.005603 0.005986 0.001490 0.001879 0.002269 0.002662 0.007941 0.008342 0.008750 0.009166 0.014473 0.010024 0.010467 0.001151 0.011372 0.011835 0.012307 0.017674 0.013287 0.018679 0.014319 0.009970 0.005630 0.011062 0.006736 0.012183 0.002988 0.003564 0.004143 0.009609 0.010199 0.005914 0.001633 0.002238 0.002845 0.003454 -0.000818 0.004677 0.000408 -0.003860 -0.008132 -0.007527 -0.011811 0.003430 -0.005746 -0.005158 -0.009459 -0.003999 0.006341 0.006918 0.007501 0.008091 0.003803 0.009286 0.009893 0.010508 0.006248 0.001993 0.007507 0.003260 0.003900 0.009426 0.010077 0.010736 0.011404 0.012081 0.007885 0.008578 0.009279 0.005104 0.005817 0.006535 0.007258 0.012871 0.008727 0.009474 0.010229 0.015876 0.016653 0.022327 0.023136 0.019080 0.015040 0.020780 0.016770 0.022541 0.028332 0.019493 0.015555 0.021398 0.012606 0.008709 0.004819 0.005817 0.006820 -0.006823 -0.005820 -0.009706 -0.013600 -0.037041 -0.045861 -0.059603 -0.058743 -0.072583 -0.091367 -0.095575 -0.099862 -0.099348 -0.108685 -0.108343 -0.103207 -0.107925 -0.112732 -0.112749 -0.103091 -0.098403 -0.084028 -0.069723 -0.060360 -0.051047 -0.046660 -0.022776 -0.023330 -0.014136 -0.004954 0.004224 0.013406 0.022599 0.026926 0.031276 0.030768 0.035169 0.024947 0.029399 0.028990 0.013954 0.008697 0.013215 0.007976 0.007628 0.007286 0.006950 0.001736 0.001408 0.010848 0.010530 0.015104 0.024575 0.019414 0.019154 0.014025 0.018676 0.013574 0.008484 0.008284 0.008092 0.007906 0.017494 0.017330 0.017179 0.017043 0.016921 0.021697 0.026491 0.016655 0.021485 0.006796 0.006765 0.006740 0.001836 -0.003066 -0.022622 -0.017778 -0.017832 -0.013017 -0.008212 -0.003415 0.006264 0.001296 0.010981 0.010907 0.015726 0.010790 0.010747 0.020481 0.015580 0.020459 0.020472 0.025386 0.010785 0.015729 0.006033 -0.003657 -0.013350 -0.003518 -0.008341 -0.008288 -0.013125 -0.003320 -0.003287 0.001628 0.011428 0.021237 0.021296 0.011605 0.011691 0.021555 -0.002751 -0.017291 -0.007426 -0.007335 -0.007250 -0.002287 -0.002209 -0.016786 -0.002073 0.007755 0.002937 0.003006 0.012845 0.027579 0.032567 0.032699 0.037741 0.033047 0.033265 0.018858 0.024002 0.019399 0.019695 0.015124 0.005681 0.001128 -0.003425 -0.012865 -0.012548 -0.012241 -0.011944 -0.011656 -0.016263 -0.011115 -0.005976 0.004042 0.014063 0.014327 0.009720 0.005121 0.005410 0.000819 -0.008655 -0.013252 -0.008092 -0.002938 -0.002672 0.002477 0.002744 -0.006755 -0.001608 0.008422 0.003807 0.004079 -0.000529 0.004630 -0.004859 -0.009468 -0.014085 -0.013830 -0.003818 -0.008461 -0.017996 -0.008009 -0.007797 0.002177 0.007269 -0.007170 0.002806 0.003016 -0.006540 -0.011217 -0.011019 -0.010831 -0.015535 -0.015368 -0.029866 -0.029737 -0.014980 -0.005120 -0.009916 -0.009837 -0.004881 -0.004814 0.005018 0.009969 0.014929 0.010134 0.015114 0.015223 0.005577 0.000820 0.010715 0.001083 -0.003664 -0.008414 -0.003403 -0.013047 0.001718 -0.003051 0.001945 -0.002825 0.002170 -0.007485 -0.002494 -0.007273 -0.007174 -0.002197 -0.011874 -0.002024 -0.001945 -0.006751 -0.006678 -0.001727 -0.006546 -0.006486 -0.001547 -0.001494 0.003442 -0.001387 -0.001333 -0.001280 -0.001228 -0.010946 -0.015788 -0.015760 -0.020628 -0.010862 -0.010873 -0.010892 -0.010921 -0.006075 -0.006118 -0.006165 -0.006218 0.003491 0.003436 -0.006384 -0.001558 -0.001617 -0.001677 0.003145 -0.006682 -0.006747 -0.001933 -0.002005 -0.006962 -0.007042 -0.012011 -0.002338 -0.002435 -0.007418 -0.007523 -0.002750 0.002020 -0.007860 -0.017747 -0.008112 -0.018020 -0.013291 -0.008573 -0.008746 -0.013810 -0.009118 -0.014201 -0.004644 -0.004859 -0.009962 -0.015073 -0.005545 -0.005789 -0.006039 -0.006293 -0.006552 -0.006817 -0.002203 -0.012243 -0.002758 -0.007926 -0.003334 -0.008512 -0.003929 0.000651 -0.004537 -0.004844 -0.005156 -0.015240 -0.015568 -0.011026 -0.011376 -0.006852 -0.002334 -0.002701 -0.007955 0.001437 0.001061 0.010455 -0.004563 0.004836 0.004470 0.004109 0.008634 -0.001485 0.003047 0.007581 0.002353 0.011780 0.001680 0.011117 0.010796 0.015368 0.010184 0.019661 0.019386 0.024012 0.028657 0.023558 0.023362 0.023186 0.018145 0.013119 0.017872 0.007988 0.007878 0.002891 0.012558 0.002700 -0.002272 -0.002362 0.002430 -0.002544 -0.007520 -0.002734 -0.002834 -0.002937 -0.007926 -0.008038 -0.008157 -0.013166 -0.008418 -0.003677 -0.003823 -0.003973 -0.004125 -0.004281 0.000443 0.000284 -0.004759 -0.009806 0.004675 0.004507 0.004344 0.004184 0.013796 0.013651 0.008633 0.008506 0.008387 0.003391 0.008165 0.008062 0.003082 0.002988 0.007781 0.012580 0.007622 0.007554 0.012376 0.012325 0.012283 0.007368 0.012227 0.012212 0.007324 0.007325 -0.002436 0.007338 -0.002419 0.007359 0.002490 0.007392 -0.002352 0.002554 0.002578 -0.002280 -0.012024 0.002642 -0.007109 -0.002215 -0.002206 -0.002199 -0.007078 0.002689 -0.002194 -0.002194 -0.002196 -0.011969 -0.007099 -0.012002 -0.002264 -0.012064 -0.002338 0.002503 -0.007307 -0.012238 -0.007412 -0.007476 -0.012430 -0.007627 -0.002829 0.001966 0.006762 0.006680 0.006604 0.001649 -0.003304 0.001507 0.001437 -0.003517 -0.003590 0.001218 0.006028 -0.003810 0.005885 0.005817 0.005754 -0.004072 0.000750 -0.004195 -0.009143 0.000552 0.000481 -0.004475 0.000334 0.000260 0.005069 0.000115 0.004929 0.009747 0.009689 -0.005013 -0.000184 0.004646 0.009480 0.004553 0.009398 -0.000401 0.004452 0.004424 0.009284 0.004384 0.009255 0.014134 0.009257 0.014155 0.004413 0.004443 0.004476 0.004514 0.004555 0.009483 0.004652 0.004708 0.004768 0.009717 0.009789 0.009869 0.005074 0.000283 0.005260 0.010241 0.005463 0.005574 0.005689 0.000925 0.005929 0.001171 0.006181 0.006312 0.001565 0.001703 0.001843 0.006868 0.002131 0.002279 0.002429 0.007466 0.007624 0.002905 -0.001811 -0.001646 0.003403 0.003570 0.003740 0.008798 0.008978 0.009166 0.009362 0.004681 0.000005 0.005096 0.000423 -0.009133 -0.008928 -0.018500 -0.003666 -0.008371 -0.008200 -0.008035 -0.002993 -0.007721 0.002196 0.002347 0.002500 0.007539 0.002816 0.002980 -0.001738 -0.001573 0.003474 0.003641 -0.001074 -0.000906 0.004146 0.004317 -0.000392 0.004666 0.009728 0.000146 -0.004551 -0.004369 0.000694 -0.004010 0.001050 -0.003657 0.001401 0.001577 0.001753 0.006815 0.002115 0.002300 -0.002396 -0.002211 0.002856 -0.001842 -0.011425 -0.011250 -0.011085 -0.006045 -0.005893 -0.000863 -0.000717 0.004312 -0.000423 0.004609 -0.000123 0.000029 0.009950 0.000342 0.005387 0.000668 0.005717 0.010772 0.020719 0.016032 0.011357 0.011577 0.011805 0.012044 0.007409 0.007663 0.003040 0.008188 0.008458 0.003852 0.009016 0.009305 0.009600 0.009904 0.005332 0.010532 0.001089 0.001415 0.001743 -0.002813 -0.002486 -0.002162 -0.001840 -0.006403 -0.001203 -0.005773 -0.005463 -0.010041 -0.004860 0.000316 0.000610 -0.003981 0.001194 -0.003399 -0.007994 -0.007712 -0.002553 -0.002279 -0.006892 -0.001742 0.003407 -0.001210 0.003940 -0.000675 -0.010174 -0.009913 -0.004777 -0.004529 -0.004284 -0.004043 -0.003805 -0.008455 -0.008227 -0.008007 -0.007793 -0.007585 -0.002500 0.002583 0.002785 -0.001896 -0.001693 0.003391 -0.001289 -0.001087 -0.000885 -0.000685 -0.000484 -0.000284 -0.000085 0.000115 0.000314 -0.004370 -0.009058 -0.018637 -0.013580 -0.018302 -0.018155 -0.013139 -0.017902 -0.008028 -0.012812 -0.022492 -0.012653 -0.012594 -0.012545 -0.007622 -0.012473 -0.002683 -0.002663 -0.002645 -0.007514 -0.002621 -0.002613 -0.007492 -0.007494 -0.002617 0.002257 0.002250 -0.002640 -0.002648 -0.007543 -0.002675 -0.012462 -0.002723 -0.012522 -0.012564 -0.012616 -0.007795 -0.007864 0.001829 0.001755 -0.003202 0.001607 -0.003351 -0.003428 0.001377 0.001298 0.001221 -0.003739 -0.003819 -0.003901 0.000897 0.010580 0.000735 0.000660 -0.004299 0.000506 0.000428 0.000350 0.005156 -0.009569 -0.004767 0.004916 0.004835 0.009642 0.009573 0.019279 0.014350 0.009433 0.004523 0.009385 0.004487 0.004477 -0.000413 -0.005304 0.004452 -0.000439 -0.000447 0.004428 -0.000460 -0.000465 -0.005355 -0.000481 -0.000491 -0.000502 -0.000513 0.004360 0.004352 -0.000537 -0.000541 -0.005431 0.004328 0.004322 0.004319 -0.000564 -0.005447 -0.000567 -0.000572 -0.005461 -0.000586 -0.005480 -0.000610 -0.000625 -0.000641 0.009111 0.004219 0.009098 0.004216 0.004222 0.004232 0.004245 -0.000622 -0.005490 0.004289 -0.000580 0.004319 -0.005431 -0.005417 -0.000524 -0.000515 -0.000507 -0.000499 0.004393 -0.005364 -0.000473 -0.005351 -0.005349 -0.005352 0.004409 -0.005362 -0.000486 -0.000494 -0.005387 -0.005400 0.004351 -0.000547 0.004322 0.004312 -0.000580 -0.005471 -0.005484 -0.010384 -0.000642 -0.000668 0.004190 0.009051 0.009035 0.009027 0.023679 0.018814 0.018848 0.009131 0.009189 0.004370 0.019091 0.014292 0.014389 0.009614 0.009731 0.009855 0.005104 0.000357 0.000495 0.005517 0.005659 0.000922 0.005954 0.010991 0.006269 0.025972 0.016393 0.016595 0.021695 0.021929 0.036833 0.027348 0.032538 0.032870 0.028346 0.028729 0.024252 0.014911 0.005582 0.001142 0.001587 -0.002851 -0.007291 -0.016621 -0.030849 -0.040218 -0.044737 -0.059061 -0.068550 -0.078095 -0.077938 -0.082729 -0.087588 -0.102289 -0.112190 -0.112416 -0.102967 -0.108256 -0.108750 -0.104450 -0.095353 -0.086336 -0.077389 -0.068507 -0.054798 -0.046018 -0.032392 -0.018793 -0.000326 -0.001395 0.007303 0.011123 0.024720 0.028570 0.032443 0.031460 0.035386 0.034458 0.033558 0.032686 0.036725 0.031027 0.020470 0.024582 0.033599 0.027991 0.022407 0.026609 0.021066 0.020424 0.014914 0.019185 0.013704 0.008235 0.012540 0.011972 0.011413 0.010864 0.020092 0.009801 0.019054 0.008786 0.008294 0.012693 0.007334 0.006865 0.011286 0.010833 0.010388 0.005068 0.004636 0.004208 -0.005984 -0.001529 0.002924 0.002496 -0.002815 -0.003243 -0.008558 -0.004113 -0.009439 -0.005004 -0.005458 -0.005916 -0.001495 0.002924 0.002462 0.006887 0.001548 0.005979 0.005531 0.005088 -0.000235 0.004209 -0.001110 -0.001547 -0.006869 -0.002429 0.002009 0.001565 0.006006 0.005568 0.010019 0.014478 0.009181 0.013660 0.008382 0.007995 -0.002153 -0.007420 -0.007808 -0.003319 0.001168 0.005655 0.000379 0.004872 0.004484 -0.000784 -0.001168 -0.001554 -0.011708 -0.007221 0.002145 0.001744 0.006229 0.005835 0.005446 0.000177 0.004676 0.004296 0.003919 0.003545 0.008058 0.007694 0.012220 0.016756 0.016422 0.006334 0.001135 0.000821 0.005391 0.000199 -0.000110 0.004465 0.009044 0.013630 -0.001308 0.003289 0.003004 -0.002162 0.002438 0.002156 0.001876 0.006481 0.011092 0.005944 0.000801 0.010310 0.010060 0.004935 0.004697 0.019116 0.014014 0.013808 0.008729 0.018310 0.018137 0.013096 0.008066 0.007926 0.007793 0.012550 0.017318 0.017216 0.022013 0.012175 0.007232 0.007179 0.007131 0.007090 0.007055 0.007025 0.016769 0.002107 0.006983 0.006980 0.006984 0.006993 0.002124 0.002141 -0.002725 0.002175 0.007077 0.016869 0.012023 0.002303 0.002353 0.002405 0.002458 0.007398 0.007460 0.002644 0.007598 -0.002093 -0.002018 -0.006829 -0.001878 -0.001812 0.003137 0.008088 0.013045 0.003362 0.003449 -0.001345 0.003628 -0.015815 -0.001084 -0.005890 -0.000933 -0.005745 -0.000793 -0.000726 -0.000660 0.004290 -0.000525 -0.005340 0.004493 -0.005207 -0.010027 -0.005087 -0.005036 -0.004988 -0.000061 -0.004902 -0.004863 -0.009712 -0.009685 -0.004783 -0.004768 -0.004757 -0.009634 -0.009635 -0.004760 -0.004772 -0.004789 -0.004810 -0.009719 -0.014636 -0.019565 -0.019626 -0.019703 -0.014913 -0.015020 -0.010254 -0.005497 -0.005629 -0.005765 -0.010790 -0.020709 -0.015992 -0.021056 -0.026138 -0.021474 -0.021711 -0.021967 -0.017357 -0.002993 -0.017935 -0.013356 -0.008789 -0.009113 -0.009444 -0.019551 -0.019906 -0.015394 -0.006011 -0.011285 -0.006799 -0.002320 -0.002727 -0.003135 0.001337 0.000927 0.000518 -0.004775 -0.000304 -0.005602 -0.006020 -0.006443 -0.006871 -0.007305 -0.007745 -0.017959 -0.008652 -0.004237 0.000175 0.004587 -0.000765 0.003650 0.003185 -0.002162 -0.002627 0.001790 0.006209 0.000864 0.000405 -0.000055 -0.000514 -0.000974 -0.001434 -0.006780 -0.002364 0.002051 0.001583 -0.003767 0.005532 -0.004701 -0.000286 0.004129 -0.001221 -0.006571 -0.002159 -0.002633 0.006659 0.006188 0.005723 0.015030 0.009698 0.004374 0.008822 0.013276 0.012858 0.007567 0.016933 0.011662 0.021053 0.015809 0.010578 0.010239 0.005026 0.004700 0.014147 0.008953 0.008650 0.013239 0.012954 0.007797 0.002646 -0.002503 -0.002770 -0.003040 0.001572 0.001302 0.005916 0.010536 0.005396 0.000261 0.000009 -0.000242 -0.005377 0.004135 -0.005885 -0.011026 -0.006409 -0.001796 -0.002070 -0.002345 -0.002621 0.001984 0.001706 0.001430 0.001155 -0.008886 -0.004284 -0.014336 -0.004865 -0.005166 -0.010355 -0.010668 -0.015874 -0.006442 -0.011667 -0.002249 -0.002602 -0.007840 0.001567 0.001207 0.005732 0.005378 0.005029 -0.000201 0.004338 0.003996 0.008541 0.008209 0.012769 0.002687 0.007259 -0.002815 0.001760 0.001454 0.001148 0.005727 -0.004341 -0.004644 -0.004951 -0.000379 -0.015343 -0.005899 -0.006228 -0.011447 -0.002023 -0.002369 -0.007600 -0.012838 -0.013203 -0.018462 -0.013969 -0.014372 -0.005018 -0.015205 -0.015636 -0.011196 -0.016533 -0.012116 -0.002825 -0.003305 -0.003787 0.000612 -0.014525 -0.005254 -0.000871 -0.001373 0.007892 -0.002373 -0.002871 0.001512 -0.003872 0.000509 0.004891 0.014160 0.008790 0.008310 0.012722 -0.002392 0.002028 -0.008202 -0.008671 -0.004263 -0.014511 -0.010119 -0.010619 -0.001360 -0.006754 -0.012154 -0.012679 -0.008332 -0.013759 -0.009429 -0.005108 -0.005674 -0.001362 -0.001934 -0.002508 -0.003084 0.001221 0.000643 0.000066 -0.000511 -0.001089 -0.001667 0.002637 0.006943 -0.003396 0.005797 0.005227 0.004661 0.004100 0.003541 0.007870 0.002437 0.001890 0.001345 -0.004083 0.000254 -0.005178 -0.010613 0.003478 -0.001963 -0.002522 -0.003084 -0.003647 0.000670 0.000104 0.004421 0.003859 -0.001584 0.002739 0.011949 0.016284 0.015749 0.010343 0.014714 0.014213 0.003956 0.013238 0.002995 0.002522 0.006936 0.011355 0.001131 0.005561 0.005111 0.004666 0.004224 0.008670 -0.001529 0.002923 0.007377 0.006953 0.006535 0.006123 0.010599 0.005316 0.000038 0.004528 0.004137 0.003750 0.003366 0.002985 0.007491 0.002234 0.011632 0.001503 0.001143 0.000784 -0.004458 0.000064 -0.005182 -0.000664 -0.001030 -0.006282 -0.006654 -0.007033 -0.002533 -0.002919 0.001577 0.001189 0.010571 0.005310 0.009821 0.004572 -0.000674 0.003849 0.003490 -0.006633 -0.002111 -0.002473 -0.002838 -0.003206 0.001308 0.000940 0.010340 0.000212 0.004737 0.004381 0.004030 0.003681 -0.001548 -0.016547 -0.012023 -0.022162 -0.017666 -0.018070 -0.023372 -0.018926 -0.034031 -0.029629 -0.025251 -0.030662 -0.031215 -0.026909 -0.012858 -0.018353 -0.023864 -0.019626 -0.020289 -0.011200 -0.011889 -0.002820 -0.003521 0.000659 -0.000044 -0.005631 -0.006339 -0.007053 -0.007772 -0.013381 -0.014118 -0.009982 -0.005855 -0.006616 -0.007383 -0.008157 -0.008936 -0.009724 -0.010519 -0.001555 -0.002360 -0.003168 0.000906 0.009865 0.013948 0.008275 0.012376 0.011604 0.005957 0.010083 0.004450 0.008588 -0.001918 -0.002659 -0.008285 0.005618 -0.004895 0.009009 0.008267 0.012417 0.006809 0.006091 0.015145 0.004676 0.013748 0.013062 0.017271 0.016611 0.015964 0.005563 0.004934 0.004310 -0.001196 -0.001818 0.002443 0.001821 0.001201 -0.004302 -0.004924 -0.005551 0.008470 0.002961 0.012107 0.006612 0.015773 0.010296 0.009711 0.009135 0.013450 0.003124 0.007452 0.002019 0.006356 0.000929 0.005272 0.004735 -0.000682 0.003668 0.003137 0.012377 0.011860 0.006468 0.001081 0.000579 0.004962 -0.005303 -0.000921 -0.001423 -0.001926 -0.002431 0.001945 0.006324 0.000940 0.010208 0.009717 0.014118 0.008763 0.003415 0.007838 0.002499 0.006931 0.001600 0.001155 0.005594 -0.009498 0.009590 -0.000617 -0.010826 -0.006391 -0.001962 -0.007302 0.006888 0.001547 0.001092 0.005522 0.000188 0.004622 0.009060 0.008622 0.008191 0.012651 0.017121 0.016721 0.011451 0.006191 0.005820 0.010337 0.014864 0.009634 0.009297 0.008967 0.008644 0.008329 0.012905 0.012607 0.007436 0.007155 0.006880 0.011495 0.006351 0.010981 0.010735 0.015383 0.005391 0.005172 0.000073 0.004742 0.004531 0.009207 0.009008 0.003931 0.008627 -0.001323 -0.001506 -0.001690 -0.001876 -0.002063 -0.002252 -0.002442 -0.012403 -0.007722 -0.003047 -0.008143 -0.003478 0.001185 0.000964 -0.004139 -0.009247 -0.009477 -0.009716 -0.005079 -0.000446 -0.000697 -0.000949 -0.001202 -0.001455 0.003174 0.007806 0.002676 0.002432 0.007075 0.011723 0.011497 0.016165 0.025730 0.025548 0.015619 0.025240 0.015345 0.015231 0.010246 0.010153 0.010069 0.009993 0.009925 0.014749 0.009818 0.014663 0.014636 0.014621 0.014618 0.014628 0.004881 0.004907 0.004936 0.004970 0.005008 0.000166 0.000208 0.005134 0.010065 0.005236 0.010179 0.010246 0.000555 0.000631 0.005592 0.005674 0.005761 0.005852 0.005948 0.001165 0.001267 0.001370 0.001474 0.001580 0.001686 0.001794 0.011672 0.016675 0.011924 0.012067 0.007336 0.002611 0.012541 0.017596 0.022667 0.017988 0.018208 0.013559 0.028457 0.018959 0.024128 0.019550 0.014988 0.010438 0.015665 0.020905 0.016394 0.007012 0.007405 0.002920 0.008205 -0.006039 -0.015404 -0.019898 -0.029292 -0.038711 -0.053046 -0.057656 -0.062315 -0.076793 -0.086451 -0.091296 -0.091334 -0.096330 -0.111175 -0.111460 -0.111837 -0.102539 -0.103094 -0.103735 -0.089809 -0.085726 -0.086598 -0.072890 -0.069010 -0.050536 -0.041871 -0.023473 -0.019747 -0.011153 -0.002568 -0.003753 0.004827 -0.001242 -0.002427 0.006153 0.009855 0.013565 0.012402 0.021017 0.010114 0.013871 0.012756 0.011651 0.005672 0.009466 0.013267 0.012196 0.016018 0.014970 0.018819 0.012915 0.021673 0.020682 0.019707 0.018749 0.022691 0.021767 0.020862 0.010206 0.014210 0.008458 0.012481 0.011630 0.010789 0.014841 0.014021 0.013213 0.012416 0.016513 0.015740 0.010095 0.014228 0.008604 0.012755 0.012032 0.021088 0.020393 0.024599 0.033710 0.028196 0.022706 0.017235 0.011777 0.020982 0.020436 0.024791 0.024283 0.018910 0.023322 0.017984 0.017546 0.012238 0.011824 0.001652 0.011018 0.010625 0.010240 0.009864 0.004612 0.009132 0.018543 0.008434 0.012984 0.012660 0.007464 0.002273 0.001968 0.001665 0.006247 0.001066 -0.004114 -0.004413 0.005052 0.004754 0.004459 0.004168 0.008765 0.008484 -0.001557 0.007936 0.002784 0.007403 0.012027 0.006894 0.011534 0.011300 0.011075 0.005975 0.005764 0.010442 0.020013 0.010064 0.009892 0.004844 0.009567 0.009415 0.004387 0.009130 0.023649 0.023535 0.018557 0.018478 0.018415 0.018367 0.013450 0.008544 0.018297 0.018298 0.013429 0.018340 0.013498 0.013551 -0.001036 0.008795 0.003982 0.008940 0.009022 0.013995 0.014095 0.019092 0.014336 0.019360 0.024400 0.024576 0.019889 0.020102 0.015448 0.025458 0.020838 0.021119 0.021418 0.026618 0.026956 0.022433 0.017928 0.013438 0.018728 0.009380 0.000041 0.005354 0.010671 0.015997 0.006684 0.012029 0.007615 0.008092 0.008576 0.013951 0.014453 0.010084 0.010606 -0.003514 0.001898 -0.002455 0.002957 0.013255 0.008913 0.009462 0.005135 -0.004072 -0.003515 0.001924 0.002481 -0.001845 -0.001288 0.004152 0.004711 0.010158 0.000962 0.001534 0.002108 -0.007085 -0.006515 -0.001067 -0.005388 -0.009713 -0.004278 -0.003731 -0.003187 -0.012413 -0.002114 0.003299 -0.005937 -0.005409 0.004881 0.000524 0.005935 0.001584 -0.002767 -0.002236 0.003178 0.003709 0.004245 -0.000101 0.005322 0.000980 0.006408 0.002073 0.002624 0.003177 -0.006036 -0.005485 -0.009823 -0.004401 -0.003867 -0.008220 -0.017464 -0.016954 -0.016459 -0.015977 -0.010624 -0.015048 -0.019485 -0.019053 -0.018638 -0.018238 -0.017853 -0.017483 -0.022011 -0.026558 -0.031126 -0.025953 -0.025685 -0.025438 -0.020328 -0.015235 -0.010155 -0.014851 -0.009792 -0.024277 -0.009477 -0.014222 -0.009211 -0.004207 -0.013858 -0.013753 -0.008776 -0.008689 -0.003726 -0.003650 0.001307 0.001381 0.001456 0.006416 0.001614 0.001697 0.001782 0.006752 0.006843 0.002056 0.007039 0.007144 0.012139 0.007375 0.017270 0.012527 0.022447 0.012849 0.008146 0.018101 0.013420 0.008750 0.018739 0.004323 0.009447 0.014579 0.005071 0.010219 0.010492 0.015657 0.015952 0.016259 0.011696 0.007143 0.017248 0.007831 0.008188 0.003668 0.008920 -0.000474 -0.000099 0.005159 0.000653 0.001032 0.001412 0.011561 0.002184 0.007460 0.007859 0.003380 -0.005980 -0.000693 -0.000290 0.000112 0.000514 0.000917 -0.003564 0.001721 -0.002761 -0.007246 0.002916 -0.001572 -0.006061 -0.005672 -0.000403 0.004866 -0.004513 -0.004128 -0.003747 -0.003368 -0.007877 0.002260 -0.002253 0.012769 0.008264 -0.001117 -0.000731 -0.005230 -0.004850 -0.009357 -0.013872 -0.008631 0.001488 0.001839 0.007076 -0.002333 -0.001976 0.008147 0.013393 0.008883 0.009263 0.009651 0.005164 0.005564 0.001085 0.001491 0.001898 0.012075 0.002726 0.008031 0.003575 0.008890 0.004444 -0.004883 0.005323 -0.004003 0.001320 -0.008008 0.002193 -0.007140 0.003058 -0.001395 -0.000964 -0.010302 -0.009881 -0.014352 -0.009067 -0.018442 -0.008295 -0.012808 -0.022215 -0.016989 -0.016660 -0.011462 -0.011157 -0.010861 -0.010574 -0.010296 -0.019795 -0.019542 -0.009537 -0.004424 -0.013967 -0.013753 -0.018435 -0.013364 -0.013188 -0.013023 -0.012869 -0.007841 -0.007704 -0.002689 -0.002561 -0.002435 -0.007194 0.002692 -0.006956 -0.001957 -0.001844 -0.006616 -0.006510 -0.001525 -0.006310 0.003553 0.003650 0.003750 -0.001031 -0.005812 -0.005715 -0.005622 -0.015301 -0.010342 -0.015159 -0.010221 -0.005291 -0.005249 -0.010096 -0.000299 -0.005154 -0.005130 0.009542 0.014454 0.014494 0.009662 0.014606 0.009794 0.004990 0.009959 0.005167 0.015032 0.010258 0.010375 0.010502 0.015521 0.015669 0.006062 0.006228 -0.003369 -0.003200 -0.007919 -0.002875 -0.002718 0.007204 0.012249 0.012419 0.007716 0.007904 0.008098 0.013182 0.003626 0.003840 0.008942 0.004283 0.009396 0.004749 0.004989 0.005234 0.005483 0.010620 0.010882 0.001386 0.001658 0.001932 0.002207 0.002485 -0.007004 -0.011614 -0.006467 -0.006208 -0.015723 -0.015482 -0.015255 -0.015040 -0.009954 -0.019527 -0.024234 -0.019192 -0.019050 -0.023808 -0.023701 -0.018730 -0.018659 -0.018603 -0.018563 -0.013654 -0.008756 -0.013634 -0.008755 -0.003883 0.000986 -0.003913 -0.003931 0.005816 0.005800 0.000904 -0.003990 -0.004004 0.000862 0.005730 0.010602 0.010599 0.005721 0.005731 0.000862 0.000878 -0.003989 -0.003976 -0.013734 0.000917 -0.003968 0.005796 0.000913 0.005799 0.005805 -0.003951 -0.003943 0.005830 0.005839 0.010738 0.005877 0.001021 0.001050 0.005964 0.005999 0.010923 0.006088 0.001258 0.011081 0.011145 0.001450 -0.003359 0.006481 0.006558 0.006641 0.011613 0.011711 0.016702 0.016824 0.012075 0.012220 0.007492 0.007653 -0.001947 0.003104 -0.001612 -0.001444 -0.006162 -0.001116 -0.010724 -0.010572 -0.005546 -0.000524 -0.005270 -0.000253 -0.005003 0.000010 0.000139 -0.004616 -0.009375 -0.009258 -0.004264 -0.004158 -0.008939 -0.008843 -0.008755 -0.008674 -0.008601 0.001234 0.001301 0.006254 -0.003440 -0.003369 -0.003301 0.006532 0.001719 0.006675 -0.003015 0.006828 0.006909 0.006996 0.011972 0.012075 0.012187 0.007426 0.012438 0.007693 -0.001929 0.003099 0.003245 0.003394 0.003546 0.003700 0.008742 0.008907 0.009080 0.004376 0.014328 0.009639 0.019611 0.005178 0.005402 0.000747 -0.003908 -0.008566 -0.003463 -0.008131 0.006730 -0.002823 0.002273 -0.002397 0.002700 0.007798 0.003135 -0.001525 0.003581 -0.001077 0.008915 0.009147 0.009386 0.009633 0.005005 0.005264 0.005528 0.005796 0.006069 0.011231 0.001751 0.002039 -0.007438 -0.002270 -0.011755 -0.006598 -0.001447 -0.001181 -0.015568 -0.005548 -0.005300 -0.005057 -0.004818 0.000301 -0.009231 -0.009004 -0.013668 -0.003691 -0.003485 -0.003282 -0.007966 -0.002888 -0.002697 -0.002508 -0.012089 0.002740 -0.006849 -0.001792 -0.001620 -0.001449 -0.006164 -0.006000 -0.010724 -0.005690 -0.005544 -0.000519 -0.000378 -0.005122 -0.004986 -0.004854 -0.004726 -0.004602 0.005286 0.005411 0.005540 0.005674 0.000928 0.001067 -0.003677 -0.008424 -0.008294 -0.008171 -0.003170 0.001828 -0.002941 -0.007712 -0.002722 -0.002618 0.002368 -0.002412 -0.002310 -0.007094 -0.007000 -0.006911 -0.001945 -0.006748 -0.006672 -0.011486 -0.001658 -0.006483 -0.001545 -0.011261 0.003434 -0.001404 -0.001359 -0.001316 -0.001273 -0.006116 -0.006080 -0.010932 -0.006026 -0.006009 -0.001113 -0.001101 -0.001091 -0.005965 -0.005961 -0.001077 -0.001078 0.003804 -0.005963 -0.001083 0.003796 0.003794 -0.001088 -0.001088 -0.001088 -0.001089 -0.001092 -0.005979 -0.001103 -0.001112 -0.010890 -0.006024 -0.001164 -0.001189 -0.006099 -0.001246 -0.001278 0.008457 0.008431 0.008412 0.003516 0.013275 0.013277 0.018174 0.018202 0.013361 0.008531 0.008593 0.003777 0.008733 0.003927 0.008893 0.013867 0.009083 0.014076 0.009312 0.014324 0.024231 0.019507 0.009915 0.010099 0.005408 0.000721 0.005802 0.006005 0.001328 0.011304 0.011522 0.011750 0.016871 0.022006 0.017391 0.017675 0.022857 0.023175 0.018627 0.014095 0.009575 0.009947 0.000559 0.005823 0.006208 0.006599 0.011879 0.012284 0.017584 0.022898 0.013580 0.014041 0.014513 0.019881 0.020382 0.020900 0.011667 0.021979 0.012774 0.018232 0.018821 0.019425 0.020045 0.025566 0.021340 0.026900 0.027598 0.028319 0.029064 0.029832 0.035510 0.026565 0.017641 0.013617 0.019371 0.015374 0.006506 0.007411 0.003438 0.004352 0.000385 -0.003581 -0.012434 -0.021298 -0.020411 -0.034193 -0.028467 -0.037417 -0.051282 -0.060306 -0.064495 -0.073622 -0.077926 -0.096947 -0.106280 -0.115701 -0.115450 -0.110411 -0.115231 -0.120147 -0.115394 -0.115621 -0.115944 -0.106595 -0.102218 -0.093042 -0.074176 -0.074906 -0.061047 -0.047239 -0.038353 -0.029500 -0.006019 -0.002078 0.001860 0.015568 0.019521 0.023490 0.017710 0.011946 0.011075 0.019981 0.019136 0.013423 0.012604 0.016681 0.011003 0.019986 0.009450 0.023342 0.012833 0.016986 0.011386 0.020447 0.014873 0.023964 0.028190 0.032440 0.026948 0.021479 0.016028 0.015474 0.010049 0.009516 0.013875 0.018245 0.012863 0.022143 0.016790 0.011451 0.011005 0.010568 0.010140 0.019488 0.019085 0.013813 0.008553 0.008184 0.002938 0.007462 0.007108 0.011645 0.011306 0.015862 0.010662 0.005471 0.005169 0.004871 -0.000307 0.004283 -0.000892 -0.006067 -0.006363 -0.011549 -0.006976 -0.007293 -0.002732 -0.003058 -0.003385 -0.003716 0.000834 -0.004383 0.005048 -0.000168 0.004383 0.008938 0.003733 0.003414 0.003099 -0.002099 -0.002413 0.002154 0.001839 0.001525 0.006097 -0.003978 -0.009173 -0.004607 -0.000045 -0.000367 0.004195 0.003876 -0.001323 0.003244 -0.001954 0.012382 0.007193 0.006894 0.011484 0.006316 0.006037 0.010647 0.005498 0.010121 0.014753 0.014513 0.014285 0.018953 0.013869 0.003912 0.013495 0.003552 0.008265 0.012984 0.003062 0.002911 -0.002122 0.002612 -0.002421 -0.007455 -0.002728 0.001997 0.001840 0.001684 0.001530 0.006261 0.006113 0.005970 0.005832 0.015467 0.010463 0.005467 0.005360 0.010142 0.005164 0.009958 0.014760 0.009807 0.014630 0.009697 0.009655 0.009622 0.014481 0.004700 0.014459 0.014462 0.014477 0.004735 0.009650 0.004805 0.004847 0.014662 0.009837 0.014788 0.014867 0.014959 0.005295 0.005403 0.010400 0.010522 0.000884 0.005899 0.001151 0.006172 0.006313 -0.003307 -0.008047 -0.007909 -0.012662 -0.002773 -0.007539 -0.012311 -0.002441 -0.007225 -0.007131 -0.002159 -0.002073 -0.001988 -0.001906 0.003060 -0.006625 -0.001662 -0.011353 -0.016170 -0.001464 -0.001411 0.003525 0.003580 -0.006131 -0.010962 -0.006035 -0.010880 -0.010851 -0.010830 -0.005935 -0.005928 -0.010811 -0.010818 -0.010835 -0.015744 -0.015782 -0.020718 -0.015902 -0.006216 -0.006303 -0.011279 -0.001613 -0.001715 -0.006704 -0.001930 0.002843 -0.002150 -0.002261 -0.002374 -0.007372 -0.007493 0.002148 0.002023 0.001899 0.006661 0.011429 0.006438 0.006336 0.011123 0.011036 0.006074 0.001117 -0.008723 -0.008802 -0.008889 -0.008983 -0.004200 -0.004305 0.000470 0.000362 0.000255 0.009915 0.000048 -0.004936 -0.009923 -0.010035 -0.015039 -0.010287 -0.010428 -0.005694 -0.015616 -0.006015 -0.006187 -0.011249 -0.011435 -0.001864 -0.002061 -0.002261 -0.002462 -0.002665 -0.002871 0.006689 0.006487 0.006290 -0.003670 -0.003865 -0.004063 -0.004264 -0.009353 -0.004682 -0.000015 0.009537 0.004444 -0.000645 0.004034 -0.001053 0.003628 -0.001456 0.003227 -0.001856 0.002828 0.002630 -0.002449 0.007121 0.006929 0.011627 0.001683 0.001508 0.001334 -0.003722 -0.003898 -0.004077 0.000625 0.005327 0.000266 -0.004795 -0.000092 0.004610 0.004433 0.004259 0.004089 0.003922 0.003759 -0.001286 0.003437 -0.001606 -0.001766 0.002957 -0.002086 -0.002247 -0.007293 -0.002578 0.002135 -0.002918 -0.003089 0.001621 0.001448 -0.003607 -0.003781 0.000925 -0.009020 -0.004320 0.005260 0.000193 0.004894 -0.005054 0.004531 0.009235 -0.000705 0.004007 -0.001047 0.003667 0.003500 -0.001548 -0.006598 -0.001885 -0.002057 -0.007115 -0.007296 -0.002598 -0.007670 -0.007865 -0.003182 -0.003386 -0.003593 0.001082 0.000873 0.000665 0.000458 0.010019 0.009820 -0.000139 -0.000330 0.009247 -0.000704 0.003996 0.003815 0.003638 0.003463 -0.006476 -0.001769 -0.006831 -0.002132 -0.007201 0.007259 0.002189 0.006889 -0.003057 0.006530 0.001471 0.006180 0.010895 0.015619 0.005704 0.010446 0.005428 0.010183 0.010062 0.009950 0.014730 0.014638 0.009674 0.004718 0.009534 0.004590 0.004534 -0.005286 -0.000459 -0.000516 0.004310 -0.000628 -0.005566 -0.000742 -0.000801 -0.000862 0.008845 0.003907 0.013625 0.013585 0.013557 0.008657 0.008647 0.013529 0.013537 0.008673 0.008701 0.008735 0.008777 0.008826 0.008882 0.004061 0.009012 -0.005565 0.004273 -0.000538 -0.000465 -0.005277 -0.005208 -0.000261 -0.005081 -0.005021 -0.004966 -0.004915 0.004900 0.000067 0.005002 0.000174 -0.004655 -0.004603 -0.004555 -0.004511 -0.004471 -0.014203 -0.009294 -0.009277 -0.009267 -0.009266 -0.004388 0.000487 -0.014174 -0.004427 -0.004452 -0.004480 0.000372 -0.009428 -0.009467 -0.004631 -0.004682 0.000147 0.004976 0.000041 0.004874 0.004827 -0.000099 -0.000142 -0.009953 -0.005120 -0.005176 0.009416 0.004480 0.004432 0.004388 0.009231 0.014081 0.004292 -0.005494 0.004251 -0.000652 0.009096 -0.000684 0.009072 0.004183 0.009065 0.009071 0.009084 0.009105 0.014018 0.009174 0.004337 0.009273 0.004448 0.004510 -0.000307 -0.005125 -0.009947 -0.005010 0.004808 -0.004907 0.004911 -0.009688 -0.004758 -0.004717 -0.004679 -0.004645 0.005152 0.010071 0.005229 0.000392 0.005323 0.010259 0.005435 0.005499 0.000684 0.005638 0.000828 0.000903 -0.003905 0.001052 0.001125 0.001200 0.006159 0.001355 0.001437 -0.008248 -0.003288 -0.012983 -0.003153 -0.007977 -0.003039 -0.007873 -0.002945 -0.007787 -0.007752 -0.007723 -0.007700 -0.007684 -0.012558 -0.007675 -0.012566 -0.012584 -0.007728 -0.007762 -0.012687 -0.012738 -0.003032 -0.003096 -0.008047 -0.013005 -0.017973 -0.022956 -0.018191 -0.018324 -0.023356 -0.018640 -0.013940 -0.009251 -0.004569 0.004992 -0.000094 -0.000296 0.004385 0.009070 0.003995 -0.001077 0.008502 0.003436 0.003257 -0.001804 0.002902 -0.002157 0.007433 0.007262 0.002213 0.002050 0.001888 0.001728 0.006454 0.006301 -0.003615 -0.003766 -0.003921 -0.008962 0.000641 -0.009291 0.000305 -0.004751 -0.000042 0.004666 0.004494 0.004326 0.009045 0.008888 0.008739 0.013480 0.013349 0.013229 0.013120 0.017906 0.008054 0.007977 0.007907 0.012727 0.012674 0.012632 0.012600 0.012578 0.012567 0.002798 0.002800 0.002803 0.002810 0.002818 0.007713 0.002846 -0.006902 -0.002004 -0.006876 -0.001986 -0.001981 -0.001978 -0.006860 -0.006864 -0.001990 -0.002002 -0.006899 0.002850 -0.002050 -0.002068 -0.002088 -0.006994 -0.002137 0.002718 -0.002193 -0.002222 -0.002253 -0.012053 -0.012096 -0.012148 0.002441 -0.007387 -0.002570 0.002245 0.002179 0.002113 0.011818 0.006881 0.006833 0.006790 0.006754 0.011607 0.016470 0.016462 0.021352 0.016491 0.011645 0.016576 0.016636 0.006943 0.011907 0.002229 0.012089 0.017075 0.012308 0.017318 0.017459 0.012730 0.022664 0.017964 0.003512 0.008598 0.003923 0.009020 0.004356 -0.005188 -0.000084 -0.004749 -0.004533 0.000562 -0.008993 0.000979 -0.003699 -0.003497 -0.008181 0.001780 -0.007794 -0.002722 -0.007420 -0.007241 -0.011952 -0.006904 -0.011630 -0.006598 -0.001571 -0.006314 -0.006178 -0.010931 -0.010809 -0.005812 -0.005704 -0.005600 -0.010386 -0.005411 -0.005326 0.004524 0.004609 -0.000186 -0.000098 0.009759 0.004972 0.000189 0.000290 0.000391 0.000492 0.000594 0.005581 0.000804 -0.003972 -0.003868 -0.003767 0.001215 0.001315 -0.003469 0.001512 0.001611 0.001711 -0.003072 0.006795 0.002015 -0.002762 -0.017311 -0.007453 -0.012254 -0.012181 -0.021886 -0.007189 -0.016918 -0.016893 -0.016882 -0.012001 -0.012014 -0.007153 -0.007182 -0.007217 -0.007258 -0.002421 -0.002469 0.002364 0.002315 0.012036 0.011999 0.007087 0.002182 -0.002721 0.002141 0.002121 -0.002781 0.006967 0.006952 0.011827 0.006944 0.006950 0.011847 0.006985 0.011897 0.002167 0.007091 0.007136 0.012072 0.002365 0.002428 -0.002390 0.002557 -0.002261 -0.002197 -0.002135 0.002809 -0.002013 0.002932 0.002995 0.003061 0.008013 0.008088 0.008169 0.013142 0.008357 0.008463 -0.001192 -0.001079 -0.005852 0.004022 0.004132 0.004245 0.009246 0.004486 0.014383 0.014523 0.019559 0.019727 0.019912 0.015229 0.015443 0.010785 0.015905 0.011269 0.026179 0.021575 0.021873 0.022189 0.027407 0.027764 0.023260 0.018775 0.033841 0.034284 0.029871 0.035251 0.026009 0.026555 0.032008 0.032604 0.038110 0.033880 0.024794 0.030381 0.026224 0.026974 0.013094 0.013876 0.014671 0.005709 0.001636 -0.007319 -0.011397 -0.015484 -0.024468 -0.033472 -0.037620 -0.051567 -0.060673 -0.069829 -0.074159 -0.083434 -0.092779 -0.102201 -0.101939 -0.106646 -0.111441 -0.111445 -0.111541 -0.111729 -0.102242 -0.097724 -0.093287 -0.069391 -0.065089 -0.055957 -0.046871 -0.028056 -0.014148 -0.010020 -0.001016 0.003103 0.016992 0.021128 0.020397 0.019683 0.018985 0.018303 0.017637 0.026753 0.031007 0.030402 0.024939 0.009729 0.014063 0.023292 0.013005 0.017380 0.021770 0.021294 0.020835 0.025278 0.019974 0.014686 0.019179 0.013919 0.013555 0.008318 0.007972 0.007633 0.007300 0.016741 0.006660 0.011236 0.010938 0.015533 0.010373 0.014989 0.019618 0.024263 0.019160 0.018957 0.023654 0.013718 0.018446 0.018305 0.018179 0.018068 0.017972 0.013007 0.012937 0.007994 0.007941 0.003011 0.017619 0.012706 0.022456 0.012688 0.022467 0.017612 0.017656 0.017714 0.012903 0.012987 0.008198 0.008299 0.003523 0.003635 -0.001135 0.008746 0.003983 0.008991 0.004238 0.009257 0.009399 0.009549 0.004824 0.014754 0.014928 0.010231 0.010426 0.010630 0.001075 0.001289 0.001503 0.001719 0.001937 0.002156 -0.002508 -0.002289 0.002812 -0.006737 -0.001639 -0.001427 -0.001216 -0.005890 -0.005685 -0.000601 0.004483 0.004687 0.000010 0.009986 0.005317 0.000654 0.000874 -0.008672 -0.008458 -0.018019 -0.017826 -0.022533 -0.017490 -0.012462 -0.007444 -0.012200 -0.012082 -0.007090 -0.006988 0.002876 0.002974 -0.001809 0.003174 -0.001608 -0.001507 -0.001408 -0.006193 -0.006100 0.003756 -0.010805 -0.005839 -0.015529 -0.005697 -0.005637 0.004186 -0.005523 -0.005469 -0.005420 -0.000491 -0.000446 -0.000402 -0.000358 -0.000314 -0.000271 -0.000228 0.009583 0.004750 0.009689 0.009752 0.004939 0.005014 0.000209 0.010056 0.005260 0.010236 0.000568 0.005553 0.000775 -0.004003 0.000984 0.001088 0.006077 0.011070 0.001421 0.006425 0.001667 -0.003091 0.001917 -0.002841 0.002167 0.002292 0.002419 0.002548 0.007563 0.012585 0.012733 0.012891 0.013060 0.013240 0.003663 0.003857 0.004055 0.004255 0.004459 0.004667 -0.000005 0.000207 0.000418 0.005515 0.005731 0.005953 -0.003589 -0.008249 -0.003149 0.001949 0.007049 0.007271 0.002614 0.002844 0.003076 0.008194 -0.001332 -0.001092 -0.000853 0.004270 0.004512 0.004758 -0.004760 0.000370 -0.009152 0.000855 0.005978 0.001339 0.001584 -0.003053 0.002075 0.002321 0.007453 0.002823 -0.006689 -0.006438 -0.001308 -0.001064 -0.000820 -0.010346 -0.010111 -0.005001 -0.009664 -0.014334 -0.019016 -0.023714 -0.023548 -0.018517 -0.018385 -0.018269 -0.018168 -0.018082 -0.013126 -0.017950 -0.017905 -0.017874 -0.022743 -0.022746 -0.022768 -0.022809 -0.027753 -0.018067 -0.013281 -0.008506 -0.013506 -0.008749 -0.003999 -0.004137 -0.004278 -0.004422 0.000313 0.000165 0.009785 0.004762 0.004626 0.014262 0.014142 0.014033 0.013937 0.013851 0.013778 0.013715 0.023432 0.018517 0.013617 0.008728 0.013614 0.013628 0.013653 0.008805 0.023500 0.013795 0.018754 0.018844 0.009182 0.009295 0.014300 0.009549 0.014573 0.014726 0.019775 0.015072 0.010382 0.005701 0.005908 0.001236 0.001449 -0.008104 -0.003013 -0.002807 0.007163 0.012256 0.007591 -0.001952 0.003156 -0.001502 -0.001277 -0.005937 -0.000834 0.004268 -0.000394 -0.000173 0.000049 -0.004614 0.000488 -0.004178 0.000920 0.001136 0.011120 0.001577 0.006688 0.006920 0.007158 0.007402 0.002768 0.012789 0.017936 0.018214 0.013622 0.009043 0.009354 0.009674 0.005117 0.005449 0.005786 0.006127 0.006473 0.011708 0.007186 0.007553 0.007926 0.008306 0.008693 0.009087 0.009489 0.005014 0.010312 0.005850 -0.003491 0.001818 0.002243 -0.007097 -0.001792 -0.001371 -0.005836 -0.005422 -0.005012 -0.004607 -0.013973 -0.008699 -0.013200 -0.012828 -0.017351 -0.017004 -0.016671 -0.011468 -0.006274 -0.005970 -0.010555 -0.005380 -0.009978 -0.009700 -0.004546 -0.004280 -0.008901 -0.008646 -0.008398 -0.013041 -0.007927 -0.007703 -0.007486 -0.007275 -0.002186 -0.001983 -0.001781 -0.001581 -0.006266 -0.001189 -0.000996 -0.005688 -0.000617 -0.005314 -0.010016 -0.009842 -0.004793 -0.004631 0.000411 -0.004315 -0.004160 -0.004009 -0.003861 -0.003717 -0.008459 -0.003440 -0.003309 0.006588 0.001839 -0.002909 -0.002776 0.007124 -0.002507 0.002512 0.002649 -0.002096 -0.001958 -0.006706 -0.001692 -0.001563 -0.001435 -0.001308 -0.001183 -0.005942 -0.010707 -0.010596 -0.005610 -0.005513 -0.005420 -0.000448 -0.000360 -0.000273 -0.000185 -0.000098 -0.000011 -0.004808 -0.004725 -0.004646 0.000313 0.000389 -0.004419 -0.009231 -0.009167 -0.004226 -0.004172 -0.004122 0.005692 0.000860 0.000912 0.000965 -0.003866 -0.008700 -0.003772 -0.003732 0.001189 0.001226 0.001265 0.006189 0.001350 0.001397 -0.003440 -0.008279 -0.008242 -0.008211 -0.008187 0.006482 0.001621 0.006529 0.001674 -0.012947 -0.008043 -0.012914 -0.008027 -0.008031 -0.003157 -0.008055 -0.008075 -0.008101 -0.013019 -0.013063 -0.008234 -0.013180 -0.008368 -0.008448 -0.003651 -0.003740 0.001051 -0.003925 0.000864 0.005653 0.000679 0.000590 -0.009267 -0.004479 -0.004579 0.000201 -0.009671 -0.004899 -0.009898 -0.005138 -0.010151 -0.005404 -0.010429 -0.005695 -0.000965 -0.010888 -0.006169 -0.011222 0.003251 -0.001809 0.002897 -0.007046 -0.002343 -0.002526 0.002173 0.001989 0.006692 0.006516 0.006345 0.011064 0.006023 0.005872 0.005726 0.005584 0.005447 0.010199 0.010074 0.005075 0.004963 0.004856 0.004753 0.004653 0.014326 0.004474 0.004394 0.009202 0.014017 0.013960 0.009030 0.004108 0.004074 0.004042 -0.000869 -0.000898 -0.005811 -0.005846 -0.010769 -0.005932 -0.010869 -0.006047 -0.010998 -0.011074 -0.006275 -0.006366 -0.006461 -0.001678 -0.001781 -0.001885 -0.006874 -0.006985 -0.007102 -0.002341 0.002418 0.007180 -0.002705 -0.002824 -0.002946 -0.003070 -0.003196 -0.008209 -0.008345 -0.013372 -0.013525 -0.003922 0.000793 0.000626 -0.004425 0.000288 0.000117 0.004831 0.009548 0.004506 0.014119 0.009092 0.008956 0.013712 0.013595 0.008606 0.008508 0.013300 0.008336 0.008263 0.008196 0.003252 0.008079 0.008029 0.003101 0.003060 -0.001862 -0.001903 -0.011712 -0.016648 -0.016713 -0.011908 -0.011997 -0.002328 0.002456 -0.002527 -0.007512 -0.007619 -0.012617 -0.007857 -0.007987 -0.003240 -0.008264 -0.013294 0.001200 -0.003840 -0.008884 -0.009051 0.000542 -0.004516 -0.004694 -0.004876 -0.000177 -0.005247 -0.005438 -0.000749 -0.005828 -0.006028 -0.001350 0.008212 0.008012 -0.006833 -0.002147 -0.007232 -0.012322 -0.012539 -0.007882 -0.012999 -0.013244 -0.013499 -0.013765 -0.018927 -0.019221 -0.019531 -0.019856 -0.020198 -0.010789 -0.006273 -0.006646 -0.007025 -0.007409 -0.002916 0.001575 -0.003701 0.000789 0.000395 0.000001 -0.000393 0.004097 -0.006062 -0.006457 0.002910 -0.007257 0.002106 -0.008065 0.006178 0.005773 -0.004394 0.000086 -0.000317 -0.005605 -0.006013 -0.006426 -0.006844 -0.017037 -0.007707 -0.008151 -0.003719 -0.004173 -0.004631 -0.005093 -0.010443 -0.006034 0.008138 0.002781 -0.002573 -0.003046 0.001363 0.005773 0.010187 0.014610 0.009277 0.003952 0.008398 0.003083 0.002655 -0.002655 -0.003083 0.001370 -0.003944 -0.004377 -0.004814 0.004514 0.008961 0.008531 0.008109 0.012577 0.021940 0.006901 0.011403 0.011032 0.010669 0.005431 0.005081 0.004736 0.004395 0.004057 0.003723 0.013160 0.003072 0.002754 0.012207 0.007017 0.011602 0.021080 0.006155 0.005888 0.005626 0.005368 0.000231 -0.000023 0.004608 0.004359 0.004113 0.008755 0.008520 0.013176 0.008075 0.002981 0.017425 0.007463 0.012160 0.007099 0.002044 0.016526 0.016370 0.011344 0.016095 0.006207 0.010977 0.015756 0.005895 0.010692 0.010614 0.010544 0.015367 0.015319 0.010399 0.005488 0.010350 0.005452 0.010327 0.005442 0.000562 0.000566 0.000571 0.000576 -0.004302 -0.009184 -0.004305 -0.009199 -0.004331 0.000533 0.005397 0.015149 0.010263 0.020036 0.015175 0.010326 0.015253 0.015309 0.015378 0.020343 0.020442 0.020557 0.025574 0.025727 0.025902 0.026099 0.021433 0.031437 0.036582 0.036875 0.037197 0.032667 0.028164 0.033452 0.028999 0.029455 0.025052 0.025553 0.021191 0.016846 0.012516 0.013080 0.008771 -0.000415 -0.014485 -0.018799 -0.023129 -0.037246 -0.051393 -0.060700 -0.065172 -0.074583 -0.084056 -0.078946 -0.083670 -0.088463 -0.093329 -0.108041 -0.113074 -0.113317 -0.113654 -0.109202 -0.109723 -0.090800 -0.086604 -0.077596 -0.068652 -0.049997 -0.041152 -0.022572 -0.018663 -0.014770 -0.010889 0.007635 0.011513 0.020285 0.029073 0.023234 0.032066 0.026273 0.030269 0.029406 0.023684 0.022866 0.022066 0.016401 0.015633 0.014878 0.019020 0.013409 0.012694 0.016873 0.011298 0.010616 0.019711 0.019055 0.013530 0.012900 0.017166 0.006793 0.011078 0.015372 0.009911 0.009343 -0.000986 0.008220 0.007665 0.007116 0.001689 0.010916 0.015267 0.014748 0.009356 0.023509 0.018144 0.017679 0.012345 0.016788 0.011478 0.011061 0.010653 0.010255 0.014748 0.014370 0.014004 0.023417 0.023082 0.027650 0.022473 0.031967 0.021951 0.016837 0.011737 0.021299 0.021110 0.016055 0.015898 0.010869 0.010734 0.010607 0.015374 0.010385 0.010288 0.005316 0.000349 0.000266 0.000183 0.000100 0.004901 0.004822 0.014516 0.004685 0.014394 0.014348 0.004545 0.014282 0.009378 -0.000401 0.009355 -0.000417 0.004462 0.009345 0.004468 0.004479 0.004494 0.009396 0.009422 0.009455 0.009497 0.009546 0.004720 0.009665 -0.000034 0.000036 0.000105 0.000174 -0.004640 -0.004575 -0.009397 -0.004459 -0.004408 0.000522 0.000570 -0.004267 0.000661 -0.004178 -0.004137 0.000785 0.005707 0.005751 0.010682 0.005855 0.005917 0.015751 0.015831 0.011040 0.001373 0.001476 0.006465 0.001690 0.006685 0.006802 0.006924 0.016820 0.012078 0.007346 0.017272 0.012560 0.012742 0.022704 0.008264 0.008483 -0.001059 0.008934 0.004282 -0.000366 -0.000130 0.004990 0.000345 -0.004299 0.000822 0.001059 0.001297 0.006420 0.001781 -0.002858 -0.002614 -0.002373 0.002751 -0.001892 0.003233 -0.001409 -0.001167 -0.005810 -0.000690 -0.000455 0.004664 0.000018 -0.004627 -0.004392 0.000723 0.005839 0.010960 0.001438 0.006569 0.011705 0.011968 0.017124 0.007642 -0.001833 0.008226 0.003640 -0.000943 -0.005527 -0.010116 -0.009829 -0.009550 -0.019046 -0.013907 -0.003895 -0.003655 -0.008301 -0.008070 -0.007846 -0.012513 -0.012306 -0.012109 -0.011922 -0.016629 -0.011582 -0.011428 -0.011284 -0.016034 -0.011028 -0.010916 -0.010813 -0.010718 -0.020401 -0.015448 -0.015393 -0.015350 -0.010435 -0.015298 -0.015289 -0.010409 -0.015305 -0.005562 -0.010476 -0.005630 -0.005674 -0.005721 -0.005774 -0.005831 -0.005893 -0.005960 -0.001148 -0.006105 -0.006183 -0.001382 -0.006351 -0.011324 -0.001655 -0.006639 0.007907 0.002924 0.007711 0.002736 -0.002236 -0.002326 -0.002418 -0.002512 -0.007492 -0.002710 -0.002814 -0.007805 -0.007918 -0.012922 -0.013053 -0.003426 -0.003570 0.001167 -0.003864 0.000871 -0.004162 -0.009198 0.000410 -0.004633 0.000088 -0.000076 -0.005123 -0.000406 0.009194 0.004150 -0.000891 -0.001049 -0.001207 -0.001366 -0.001527 0.008079 -0.006728 -0.002004 -0.002167 -0.002331 -0.007381 -0.007553 -0.017500 -0.012809 -0.017896 -0.013230 -0.008576 -0.013696 -0.018828 -0.009324 -0.014479 -0.014762 -0.005289 -0.005589 -0.005894 -0.006203 0.003251 0.002939 0.002630 0.007207 0.002021 -0.003162 0.006304 0.006007 0.010599 0.010316 0.010041 0.004891 -0.000255 -0.000518 0.004104 0.003844 -0.001296 0.003331 0.007960 -0.002056 -0.002306 0.007211 0.002081 0.006721 0.001599 0.006246 0.006014 0.010672 0.015338 0.005364 0.010048 0.014739 0.014559 0.019275 0.014238 0.009214 0.009081 0.013840 0.013726 0.013624 0.008649 0.008565 0.008488 0.003534 0.003467 0.003404 0.008226 0.003288 0.003236 0.008072 0.003145 0.007990 0.003073 0.012810 0.017674 0.012785 0.003023 0.007915 0.007929 0.007950 0.022630 0.027560 0.012977 0.013058 0.013148 0.003482 0.003587 -0.001190 -0.001083 -0.000977 0.004012 -0.005648 -0.000661 0.004326 -0.000451 -0.000345 -0.010007 -0.000141 -0.004928 -0.009718 0.000135 0.000221 0.000306 0.005276 0.005367 0.000577 0.000673 0.000768 0.000865 0.000962 0.001060 -0.003725 -0.003630 -0.008421 -0.018103 -0.018032 -0.013093 -0.008164 -0.003242 -0.008090 -0.008061 -0.008039 -0.008024 -0.008015 -0.008013 -0.003133 -0.003141 0.006618 -0.003155 -0.003161 -0.008055 -0.008071 -0.003210 0.001649 0.001625 0.001602 0.001580 0.001560 -0.003343 -0.003364 -0.003389 -0.013184 -0.013222 -0.013271 -0.013331 -0.018287 -0.023257 -0.018479 -0.013715 -0.018732 -0.009112 -0.014151 -0.014318 -0.009613 -0.014684 -0.014883 -0.010211 -0.005547 -0.000887 -0.001112 -0.006223 -0.006454 0.003077 -0.011809 -0.012053 -0.007423 -0.002799 0.001823 0.001562 0.011070 0.010820 0.010579 0.015230 0.005242 0.005026 0.004815 0.009491 0.009291 0.009099 0.008915 0.008738 0.008568 0.013289 0.008254 0.017877 0.012863 0.007860 0.002863 0.002752 0.002644 0.007422 0.002438 0.007224 0.007133 0.016815 0.006975 0.011792 0.011736 -0.002963 0.006756 0.001829 0.001787 0.001746 0.001707 0.006553 0.006521 0.006494 0.011357 0.006461 0.006454 0.006453 0.011341 0.011354 0.006493 0.011405 0.006559 0.001718 0.006647 0.006697 -0.003016 0.001921 -0.002908 0.002028 0.006966 0.011910 0.007095 0.002287 -0.007404 -0.002448 0.002505 -0.002308 -0.002239 -0.002171 -0.002105 -0.006925 0.002901 0.002962 0.003025 0.003090 -0.001726 -0.006543 -0.001598 -0.006422 -0.001483 -0.006314 0.003503 0.003554 0.013376 0.008557 0.003745 0.003821 0.013667 0.003989 0.008966 0.009067 0.009175 0.004406 0.004526 -0.005119 0.004768 0.004890 0.000133 0.000260 -0.009381 -0.004377 -0.004261 0.000735 -0.004036 -0.008811 -0.008709 -0.003730 -0.003638 0.001335 -0.013227 -0.018032 -0.008200 -0.003258 0.001680 0.001736 0.001794 0.006736 0.006801 0.006871 0.011831 0.011916 0.016896 0.012121 0.007357 0.007483 0.007614 0.007753 -0.001871 -0.006612 -0.011358 0.003422 -0.001331 0.003683 -0.005952 -0.005824 -0.010585 -0.005587 -0.010361 -0.000492 -0.010159 -0.000299 -0.009974 -0.009891 -0.009815 -0.009748 0.000080 -0.004745 -0.014457 -0.014414 -0.009498 -0.004590 -0.004570 -0.014322 -0.009434 -0.009437 0.000319 -0.009460 -0.004595 -0.004618 -0.009528 -0.009563 -0.004721 -0.004767 -0.004818 -0.009756 -0.000050 -0.004997 -0.005063 -0.005134 -0.010093 -0.010176 -0.005384 -0.010365 -0.010469 -0.010583 -0.005821 -0.005948 -0.010964 -0.006222 -0.011252 -0.006524 -0.006685 -0.001967 -0.002135 -0.007189 -0.002481 -0.007543 -0.002844 -0.003030 -0.008103 -0.008299 -0.003618 -0.003824 0.000851 -0.004241 -0.004453 0.000216 -0.009767 -0.005107 -0.005334 -0.010450 -0.005807 -0.006052 -0.001419 -0.001670 0.002961 0.002710 0.002462 0.011983 0.011747 0.006636 0.006415 0.011083 0.005993 0.010675 0.005598 0.005410 0.005227 0.014815 0.009764 -0.005047 -0.000326 -0.000489 -0.000653 0.008950 -0.000974 0.008636 0.003601 0.003454 -0.001575 0.008047 -0.001861 0.007766 -0.007020 0.002608 -0.002414 -0.007439 -0.022237 -0.017518 -0.022581 -0.022779 -0.018112 -0.003692 -0.013695 -0.013941 -0.014199 -0.019352 -0.009870 -0.010164 -0.015350 -0.005897 0.003551 -0.001650 0.002916 -0.002284 -0.002602 -0.007806 -0.008132 -0.003582 0.000966 -0.004253 0.000292 -0.000047 -0.000385 0.009044 0.018480 0.013280 0.012975 0.012681 0.012397 0.012123 0.016744 0.016494 0.006490 0.011143 0.015806 0.010714 0.010514 0.005440 0.010138 0.005076 0.004902 -0.000151 -0.000321 -0.000491 -0.005545 0.004048 0.008761 0.008596 0.003555 0.003401 0.008134 0.007989 0.017619 0.017496 0.017387 0.017292 0.022096 0.022034 0.021991 0.021965 0.017074 0.017081 0.017102 0.017138 0.012303 0.012363 0.022201 0.012522 0.017504 0.022502 0.022634 0.017900 0.013182 0.018243 0.018434 0.018641 0.023748 0.019106 0.019363 0.019637 0.010160 0.010458 0.015650 0.011086 0.006531 0.011750 0.007211 0.017330 0.012811 0.008302 0.013569 0.013962 0.014368 0.019669 0.024987 0.020557 0.021028 0.026401 0.026911 0.027444 0.028000 0.033463 0.029186 0.029816 0.025588 0.031149 0.017199 0.013032 0.003992 0.004723 0.000573 -0.008459 -0.012615 -0.021665 -0.035617 -0.049599 -0.048969 -0.063033 -0.067380 -0.081552 -0.090907 -0.090569 -0.095191 -0.095007 -0.104671 -0.104652 -0.099837 -0.099989 -0.105107 -0.100545 -0.091181 -0.081894 -0.067790 -0.063511 -0.054400 -0.035566 -0.036298 -0.022408 -0.018304 -0.009332 -0.005251 -0.001175 0.007784 0.016750 0.020846 0.024959 0.024208 0.028362 0.017887 0.012311 0.021397 0.025617 0.015207 0.019460 0.013962 0.013360 0.012769 0.012188 0.011617 0.006172 0.005616 0.000181 0.009397 0.003970 -0.001454 0.002889 0.002350 -0.003071 0.001273 0.005619 0.005085 0.009440 0.004034 0.003516 0.003000 0.002487 0.001976 0.006351 0.005847 0.000464 0.004849 0.004354 0.003863 0.003375 0.002890 0.002407 0.001926 0.006331 0.005857 0.005388 0.009808 0.009351 0.008903 0.013345 0.012915 0.017379 0.012090 0.011695 0.006426 0.010930 0.015443 0.005316 0.019614 0.019277 0.018955 0.023533 0.023247 0.022980 0.022732 0.022503 0.027176 0.026988 0.017055 0.016903 0.016766 0.021526 0.006768 0.011552 0.006578 0.011376 0.011301 0.006350 0.011173 0.011122 0.011079 0.020814 0.020798 0.015915 0.015929 0.015957 0.006229 0.006275 0.006326 0.006383 0.006444 0.001627 -0.008072 -0.008011 -0.007956 -0.003023 -0.002977 -0.002934 0.001991 0.006918 0.006966 0.002136 0.002192 0.002250 -0.012342 -0.007409 -0.007366 -0.002445 -0.007293 0.002504 -0.002349 -0.007204 -0.007181 -0.002279 -0.007148 -0.007139 -0.012019 -0.002258 -0.002266 -0.007160 -0.007176 -0.002314 -0.002338 -0.012132 -0.007284 -0.007326 0.002394 0.002348 0.002304 0.002261 0.002221 0.002183 0.007030 0.002115 0.006970 0.006946 0.006929 0.006917 0.006911 0.006910 0.002032 0.002039 0.006932 0.002062 0.002078 0.002096 0.007000 0.007025 0.007056 0.007093 0.012020 0.007189 0.012132 0.012201 0.007396 0.012366 0.007577 0.002795 0.012667 0.007897 0.003134 0.003258 0.003385 0.008398 0.003650 -0.001095 -0.000956 -0.000819 0.004202 0.009226 -0.000394 -0.000246 -0.004983 0.000044 -0.009580 -0.004561 -0.009313 -0.014073 -0.009077 -0.013856 -0.013763 -0.008797 -0.013607 -0.013544 -0.018376 -0.013455 -0.008545 -0.013411 -0.008519 -0.008519 -0.013410 0.001224 -0.008560 -0.003700 0.001157 0.001131 0.001106 0.005965 0.001062 -0.003840 0.001022 0.001002 0.000982 -0.003921 0.000941 -0.003965 -0.013758 -0.013794 -0.004074 -0.004125 -0.009063 -0.004241 -0.009190 0.000504 0.000432 -0.009408 -0.009489 -0.004693 -0.004784 -0.004880 -0.004980 -0.000200 -0.000304 0.004475 -0.000509 0.009157 0.004180 0.004090 -0.005765 -0.000972 -0.005949 -0.010930 -0.011036 -0.016035 -0.016164 -0.021190 -0.016466 -0.016639 -0.011942 -0.012139 -0.012346 -0.012564 -0.007907 -0.008142 -0.008383 -0.008631 -0.013770 -0.009152 -0.009427 -0.009709 -0.009999 -0.005413 0.004052 -0.006015 -0.006319 -0.001745 -0.006940 -0.007257 -0.007580 -0.003025 -0.008241 -0.013463 -0.008929 -0.009286 -0.014535 -0.005143 0.004243 0.003866 -0.001392 -0.001768 -0.007029 -0.007412 -0.002917 -0.003308 -0.003702 -0.008983 0.010148 0.009752 0.004480 0.008979 0.003719 0.017997 0.007870 -0.002251 0.002279 0.006811 0.011348 0.015894 0.015570 0.010375 0.005188 0.004890 -0.000288 0.004301 0.004010 0.008607 0.008326 0.003168 -0.001987 0.002625 -0.002530 -0.002802 -0.007961 -0.003359 -0.008527 -0.013702 -0.014005 -0.009435 0.000011 0.004572 -0.000630 0.008819 0.008508 0.013087 0.012794 0.012511 0.012238 0.016859 0.016611 0.016376 0.016155 0.011063 0.005980 0.005787 0.000714 0.000526 -0.004546 -0.009622 -0.014705 -0.014917 -0.005373 -0.005602 -0.005835 -0.006073 -0.001432 -0.006561 -0.001926 0.002706 0.007341 0.002214 0.001973 0.011501 0.001503 0.001275 0.005931 0.000824 0.010370 0.010157 0.014835 0.014643 0.004694 0.009401 0.009232 0.009071 0.004033 0.003883 0.003736 0.003591 -0.001434 0.003308 0.003168 0.003031 0.002897 0.007649 0.007523 0.007404 0.002406 0.002295 0.007069 0.002082 0.006864 0.001884 -0.003095 0.006576 -0.003284 0.006390 0.001417 0.015981 0.011022 0.015841 0.010904 0.015745 0.020598 0.020585 0.020589 0.020610 0.015764 0.010931 0.010991 0.011060 0.011138 0.011226 0.006439 0.001657 0.006644 -0.003014 -0.007792 -0.012576 -0.007602 -0.007519 -0.002557 -0.012250 -0.002417 -0.007238 0.002586 0.002646 0.012475 0.012546 0.012628 0.007837 0.012820 -0.001723 0.008153 0.008268 0.013274 0.008523 0.008663 0.003926 0.008960 0.009118 0.009283 0.014340 0.009641 -0.004818 -0.004629 -0.009328 -0.004267 -0.004093 -0.003923 -0.008640 -0.008480 -0.003443 -0.013061 -0.003154 -0.003017 -0.002883 -0.002752 -0.002622 -0.007379 -0.002374 -0.007139 -0.002141 -0.006914 -0.001924 -0.011588 -0.006609 -0.006520 -0.006437 -0.006358 -0.001401 -0.006213 -0.001263 -0.001197 0.003752 0.003819 0.003890 0.013733 0.004050 -0.005629 0.004223 -0.000573 0.004398 -0.000395 0.004580 -0.009978 -0.005007 -0.009809 -0.014620 -0.024326 -0.019400 -0.014491 -0.014477 -0.004708 -0.009594 -0.009605 -0.004739 -0.004761 0.000097 -0.004814 -0.009728 -0.004882 -0.004924 -0.000086 -0.005017 -0.000183 -0.005118 -0.005173 -0.005232 -0.000412 -0.000476 0.004344 -0.005485 -0.000666 -0.000732 0.004086 -0.005745 -0.005813 -0.005886 -0.005963 -0.006046 -0.001249 -0.001338 -0.011195 -0.006410 -0.001630 -0.006620 -0.006731 -0.006847 -0.002086 0.002674 0.002553 -0.002451 0.002311 0.007075 -0.002807 -0.002923 -0.007926 -0.003167 -0.008179 -0.008313 -0.008455 -0.008603 -0.013643 -0.008926 -0.013984 -0.004402 -0.009476 -0.009674 -0.004995 -0.005205 -0.015187 -0.005645 -0.020529 -0.006125 -0.001494 -0.001749 -0.002005 -0.007146 -0.007410 -0.007680 -0.012840 -0.008243 -0.003652 0.000935 -0.009129 -0.019200 -0.004868 -0.010075 -0.005523 -0.015627 -0.015976 -0.016339 -0.011831 -0.017101 -0.017501 -0.008147 -0.008568 -0.008997 -0.009433 -0.004992 -0.015208 -0.010785 -0.011254 -0.016617 -0.002457 0.001932 0.006323 0.005836 0.005353 0.004875 0.004400 0.008813 0.008350 0.007894 0.012328 0.007004 0.001686 0.001254 -0.004062 -0.004497 0.014601 0.004406 0.008867 0.008452 0.012928 0.007646 0.012138 0.006873 0.006497 0.001243 -0.004010 -0.004383 0.000125 -0.000251 -0.000627 0.008764 0.003511 0.003144 0.007664 0.012190 0.006959 0.011501 0.011169 0.010846 0.020300 0.015119 0.009950 0.009674 -0.000363 -0.000631 -0.005785 -0.001175 -0.006334 -0.001730 0.002873 -0.002291 0.002312 0.011801 0.001763 0.006379 0.001233 0.015623 0.010490 0.010250 0.010019 0.009796 -0.000188 0.004481 -0.000614 -0.000826 -0.005923 0.003627 -0.001472 -0.001687 0.002979 0.007649 -0.002328 0.007230 0.002141 -0.002945 -0.003150 -0.003358 -0.003569 0.005986 -0.003990 -0.004202 0.000467 0.000252 0.000037 -0.000178 0.004492 -0.000603 -0.010583 -0.010803 -0.006149 -0.006383 0.003145 -0.001976 -0.007098 -0.007343 -0.002710 -0.007846 -0.003222 0.001400 0.015791 0.010659 0.015304 0.010194 0.019744 0.019543 0.014473 0.014300 0.014139 0.013989 0.008967 0.018604 0.013605 0.008617 0.008520 0.003546 0.008343 0.013147 0.008194 0.013016 0.003197 0.008032 0.012874 0.012842 0.012822 0.012811 0.012812 0.017707 0.007965 0.007997 0.008036 0.022734 0.022798 0.027766 0.027872 0.023117 0.023266 0.023434 0.028505 0.023833 0.019179 0.019426 0.009921 0.015076 0.005591 0.015647 0.020833 0.016267 0.021483 0.021832 0.022200 0.007934 0.013211 0.018499 0.009150 0.009577 0.005127 0.005566 0.006009 0.006458 0.002028 0.007367 0.007829 0.008297 0.018540 0.014146 0.019532 0.020050 0.015701 0.011365 0.026574 0.022269 0.022867 0.033252 0.024128 0.024793 0.025477 0.026183 0.026911 0.022777 0.023546 0.029218 0.030031 0.021101 0.021956 0.017945 0.013949 0.009964 0.005988 0.002017 -0.006836 -0.025463 -0.019692 -0.033472 -0.047280 -0.051360 -0.070134 -0.088966 -0.093220 -0.097552 -0.101964 -0.111344 -0.106165 -0.105958 -0.105839 -0.100924 -0.100976 -0.096228 -0.081792 -0.072307 -0.067767 -0.058398 -0.044194 -0.039795 -0.030545 -0.016436 -0.007224 0.006865 0.011192 0.005761 0.019870 0.024227 0.023721 0.028118 0.032539 0.022335 0.017033 0.016629 0.016239 0.020746 0.010619 0.015153 0.009931 0.019369 0.014171 0.013870 0.018463 0.018188 0.017928 0.007915 0.017444 0.012336 0.002354 0.007026 0.006820 0.016388 0.011317 0.006255 0.006083 0.005916 0.010637 0.010484 0.015223 0.015091 0.010087 0.019744 0.014765 0.024450 0.024388 0.009693 0.019427 0.014525 0.009635 0.004753 0.004759 0.004768 0.009666 0.004804 0.009714 0.004863 0.014669 0.004951 0.014773 0.009956 0.005146 0.010109 0.015080 0.010296 0.015288 0.015409 0.015543 0.010806 0.010961 -0.003526 -0.003364 0.001679 0.006723 0.006889 0.007061 0.012122 0.002542 0.012499 0.017583 0.012914 0.013139 0.018259 0.008743 0.009001 -0.000501 0.004649 0.009802 0.010080 0.010366 0.000892 0.006071 0.001488 0.001789 -0.002792 -0.002491 0.002692 -0.001891 -0.011360 -0.006186 -0.010785 0.004142 0.004422 -0.005063 0.000099 -0.004506 0.005537 0.000933 0.006097 -0.003385 0.006665 0.002070 -0.002525 -0.002237 0.002933 0.008106 0.003517 0.003815 0.013884 0.004429 -0.000139 0.000177 0.010262 0.005703 0.001148 0.001479 0.001811 -0.002740 -0.012177 -0.011856 -0.011545 -0.006359 0.003705 -0.000879 -0.005465 0.004597 0.000011 -0.009459 -0.009169 -0.008886 -0.013495 -0.003463 -0.012970 0.001932 -0.002700 -0.007334 -0.007091 -0.001969 -0.001733 -0.006382 -0.001269 -0.001041 -0.005697 -0.000590 -0.010136 -0.000154 0.009827 0.005165 0.000507 0.000734 0.000961 0.001189 -0.008350 0.001640 0.001863 0.006972 0.002319 0.002551 0.002786 0.007907 0.008151 0.008401 0.008658 -0.000845 -0.005465 -0.005206 -0.000067 -0.009580 -0.009333 -0.009094 -0.008862 -0.008638 -0.008421 -0.008211 -0.008007 -0.012695 -0.012508 -0.017216 -0.012171 -0.012019 -0.002110 -0.001970 0.007936 0.008081 0.003348 0.003502 0.003659 0.003820 0.003983 0.009034 0.004324 -0.005267 -0.005093 -0.009808 -0.009647 -0.009494 -0.014233 -0.014100 -0.018863 -0.013873 -0.018662 -0.013699 -0.018515 -0.008695 -0.013534 -0.003732 -0.003702 0.006094 0.001243 -0.008491 -0.008465 -0.003561 -0.018196 -0.023078 -0.018212 -0.018244 -0.013408 -0.013467 -0.013537 -0.008734 -0.008823 -0.004034 -0.004133 0.000648 -0.009222 -0.009331 -0.004565 -0.009570 0.000069 -0.009828 -0.005081 -0.005223 -0.000484 -0.005514 -0.010549 -0.010708 -0.010877 -0.011054 -0.001473 -0.006544 -0.006737 -0.006936 -0.007141 -0.012235 -0.012455 -0.012686 -0.008044 -0.013176 -0.008551 -0.008817 -0.004206 0.000401 0.000125 0.009616 0.009348 -0.000681 -0.000942 -0.001204 -0.006351 -0.011504 -0.006897 -0.002297 -0.002582 0.002014 -0.003156 0.001440 0.001152 0.010634 0.005472 0.005199 0.004930 0.009550 0.004409 0.004156 0.008790 0.003664 -0.001459 -0.001700 0.012710 0.007595 0.007370 0.007151 0.002054 0.006726 0.006521 0.001436 -0.003647 0.001035 0.000834 0.000633 0.000433 0.005117 0.004922 0.004730 0.004543 0.004359 -0.000705 0.003998 -0.001063 0.008526 -0.001413 -0.001585 0.008009 0.012726 0.007685 0.007535 0.007391 0.007254 0.002238 0.006992 0.006868 0.001865 0.011516 0.016293 0.011315 0.020999 0.006280 0.011102 0.006165 0.006118 0.001192 0.006034 0.005998 0.001082 0.001052 0.005906 0.005881 0.000977 0.000958 -0.008828 -0.003970 -0.003999 0.000853 0.000821 0.000790 0.000760 0.005615 0.000706 0.000681 0.000658 0.005518 -0.009152 0.010358 0.005456 0.010327 0.010322 0.010326 0.000571 0.000584 0.005481 0.010383 -0.004242 -0.004219 -0.004199 0.000701 -0.004166 -0.009037 -0.009031 -0.013917 -0.013930 -0.004187 0.000669 0.000641 0.010382 0.005479 0.000581 0.005452 0.010327 0.000558 0.005442 0.000563 0.005452 -0.004307 0.000583 0.005474 0.010369 0.010388 0.010417 0.010453 0.015383 0.010557 0.010624 0.005816 0.001012 0.001094 0.006060 0.001264 0.006236 -0.003438 -0.008232 -0.003264 -0.003182 -0.012872 -0.003036 -0.002971 -0.002908 -0.007731 -0.002793 -0.007625 -0.007580 -0.002657 0.002264 0.002303 0.002344 -0.007381 -0.007345 -0.007314 -0.007290 -0.007271 -0.007259 -0.002369 -0.002364 -0.007246 -0.002365 0.007397 -0.007254 -0.007260 -0.002387 -0.002401 -0.002416 -0.002433 -0.002453 0.002410 -0.007378 -0.007403 -0.007435 -0.012357 -0.012405 -0.012464 -0.002764 -0.002835 0.006859 -0.002976 -0.007931 -0.008007 -0.003207 -0.008177 -0.003386 -0.003481 0.006188 0.010979 0.010895 0.010819 0.010753 0.005812 0.005759 0.000827 0.000780 0.000734 0.000688 0.005527 0.005486 0.005450 0.000534 0.005387 0.000477 0.010218 0.000432 0.005299 0.010170 0.015049 0.010173 0.015073 0.015102 0.020027 0.000549 0.010376 0.010443 0.005634 0.000830 0.000911 0.010761 0.005968 0.001179 0.001276 0.006257 0.001476 0.006464 0.016342 0.016465 0.016601 0.011868 0.012028 0.002430 0.002602 -0.002108 0.007833 -0.001756 0.003306 0.003486 0.003669 0.008739 -0.000835 0.004242 0.004438 0.004638 0.004842 0.000166 0.005258 0.000586 -0.004085 -0.008759 -0.003673 -0.003474 -0.008161 -0.007972 -0.012673 0.002151 -0.007442 -0.007274 -0.002228 0.002816 -0.001906 0.008023 0.008191 -0.001403 0.008538 -0.005933 -0.005758 -0.005587 -0.000537 -0.005256 -0.005095 -0.000054 -0.004781 0.000256 0.010177 0.015223 0.015397 0.005816 0.006007 0.001320 -0.003366 0.006597 0.006798 0.007004 -0.002552 0.002542 0.007638 0.002972 -0.006575 -0.006360 -0.006150 -0.005945 -0.005745 -0.005550 -0.005359 -0.000289 0.014549 0.000095 0.000293 0.000491 0.005574 0.005777 0.005986 0.011083 0.006421 0.001765 0.006878 0.007112 0.007353 -0.002168 0.007845 0.003212 0.003467 0.008608 0.008872 0.018911 0.019198 0.024386 0.019825 0.020165 0.010753 0.011119 0.006609 0.011873 0.007379 0.012659 0.008182 0.008595 0.009016 0.009443 0.009879 0.010323 0.001008 -0.003423 -0.002973 -0.007408 0.002801 0.008130 -0.001187 0.004147 0.004600 0.000173 0.005515 0.010861 0.001563 -0.002848 -0.002378 -0.001911 -0.006328 -0.000983 -0.005407 -0.024487 -0.014284 -0.008976 -0.003676 -0.008147 -0.012624 -0.012228 -0.016727 -0.016355 -0.011112 -0.015647 -0.015311 -0.014987 -0.004908 -0.014369 -0.004306 -0.008899 -0.013499 -0.013226 -0.012964 -0.012712 -0.012472 -0.012241 -0.016905 -0.016699 -0.011623 -0.016324 -0.016155 -0.020883 -0.006092 -0.010843 -0.015603 -0.000839 -0.010496 -0.010394 -0.010301 -0.010216 -0.005255 -0.000299 0.004657 0.004732 -0.000072 0.004892 0.004975 0.005063 0.019807 0.010148 0.015148 0.015278 0.015420 0.015575 0.010858 0.011035 0.006337 0.006528 0.006725 0.011811 0.002255 0.002468 -0.002200 0.002898 -0.001769 -0.001554 -0.001341 -0.001128 -0.005801 -0.010478 -0.010280 -0.010090 -0.000141 -0.004844 0.000217 0.000394 0.000572 0.000750 0.005813 0.001112 0.001297 0.006366 0.001673 0.006749 0.011831 0.012039 0.017140 0.017372 0.012734 0.017875 0.013262 0.013545 0.008955 0.014140 0.009569 0.009890 0.010219 0.010556 0.010902 0.021026 0.021398 0.031557 0.031973 0.022649 0.018227 0.023588 0.019200 0.014829 0.020237 0.020779 0.016454 0.026794 0.027389 0.032890 0.023767 0.034199 0.020240 0.025833 0.031448 0.022437 0.018329 0.024003 0.034582 0.030537 0.026518 0.017637 0.013654 0.009682 0.000835 -0.008012 -0.002213 -0.011068 -0.015049 -0.019042 -0.027934 -0.031966 -0.045793 -0.054773 -0.058914 -0.067989 -0.077120 -0.091199 -0.085817 -0.090275 -0.094807 -0.099418 -0.099228 -0.104003 -0.103981 -0.108929 -0.113968 -0.104449 -0.099900 -0.090550 -0.076392 -0.076948 -0.067801 -0.053826 -0.035011 -0.035761 -0.026773 -0.003155 0.000924 0.009888 0.023744 0.027852 0.017331 0.021476 0.025639 0.020055 0.019372 0.013821 0.022934 0.027181 0.026567 0.025976 0.025405 0.024856 0.019443 0.023814 0.033090 0.032624 0.037070 0.031778 0.036281 0.021278 0.025828 0.015748 0.020333 0.020050 0.024669 0.034191 0.024207 0.028894 0.023837 0.023684 0.013782 0.013660 0.013550 0.018334 0.008482 0.008405 0.013219 0.008275 0.013107 0.017949 0.017923 0.008143 0.008138 0.013023 0.013036 0.013059 0.013093 0.013138 0.003426 -0.001399 -0.001342 -0.001285 -0.001230 -0.006060 -0.001126 -0.005962 -0.005919 -0.010764 -0.005851 -0.000942 -0.010686 -0.000903 -0.010656 -0.015535 -0.005774 -0.005786 -0.000919 -0.000937 -0.005839 -0.000979 -0.010771 -0.001036 0.003814 0.008667 0.003760 0.018391 0.008618 0.003736 0.008625 0.008637 0.008657 0.008683 0.003833 0.003870 -0.005858 -0.005823 -0.000909 -0.005763 -0.000854 -0.005714 -0.010578 -0.005684 -0.000794 -0.000788 -0.000784 -0.005664 0.004104 0.004106 0.004112 0.009006 0.013907 0.004167 0.009083 0.004239 0.009166 -0.000552 -0.005385 0.004428 -0.000406 -0.000357 -0.005193 -0.000264 -0.009988 -0.005068 -0.014804 -0.005017 -0.005002 -0.000106 0.004789 0.004804 0.004823 0.009730 0.014645 0.019572 0.019631 0.024591 0.010035 0.015024 0.020025 0.010390 0.015416 0.010687 0.001083 0.011015 0.001421 -0.008172 -0.003120 0.001930 -0.002787 -0.002622 -0.002460 0.007469 0.007636 -0.001959 0.003097 -0.001613 0.008328 -0.006145 -0.005970 0.003967 -0.005628 -0.005459 -0.000412 0.009520 0.004807 0.009866 0.005166 -0.004414 0.000654 0.000838 0.005908 0.006098 0.001409 0.001605 0.006687 0.002007 0.007096 0.012190 0.017295 0.007763 0.012888 0.013141 0.008520 0.008790 0.009068 0.004469 -0.000126 0.000163 -0.004432 -0.004147 -0.003865 0.001298 0.001577 0.001858 -0.002743 0.007305 0.012475 0.003004 0.003303 -0.001279 -0.000978 0.004206 0.004509 0.004817 0.010012 0.010331 0.005775 0.006108 0.006446 0.001905 0.007134 -0.002283 -0.001934 -0.001587 -0.006125 -0.005784 -0.010332 -0.024656 -0.024349 -0.024062 -0.018911 -0.023544 -0.023312 -0.023100 -0.018023 -0.012960 -0.007909 -0.017516 -0.012485 -0.012349 -0.007339 -0.007219 -0.007105 -0.011881 -0.016667 -0.011699 -0.011624 -0.011559 -0.006620 -0.016338 -0.006534 -0.006503 -0.006477 -0.011341 -0.016214 -0.006449 -0.011341 -0.006474 -0.011381 -0.006529 -0.001683 0.003162 0.003126 -0.006676 -0.001831 0.003012 -0.001911 -0.001951 -0.001992 -0.011803 -0.011856 -0.011919 -0.011992 -0.016959 -0.007287 -0.012274 -0.017271 -0.017398 -0.017540 -0.012812 -0.003211 -0.008265 -0.003557 -0.003736 0.000965 0.000784 -0.004281 -0.009350 -0.004658 -0.004854 -0.000170 -0.005254 -0.000575 -0.005664 -0.000990 -0.001201 -0.001412 -0.006509 0.003041 -0.002059 0.002608 -0.002491 0.002175 -0.002924 0.001742 0.001526 -0.003574 0.001092 -0.004009 -0.004230 0.005314 -0.004673 -0.000013 -0.005120 -0.000464 0.004192 0.003967 -0.006023 -0.006249 -0.001597 0.003055 -0.002060 0.012360 0.002370 0.002150 -0.007836 0.006592 0.006373 0.011043 0.005954 -0.004014 0.000667 -0.004419 -0.004626 0.000048 -0.005046 -0.005260 -0.005478 -0.000817 0.003843 -0.006146 0.003397 -0.006594 -0.006823 -0.011940 -0.007300 -0.007550 -0.002922 0.006587 0.006334 0.006086 0.000959 0.010485 0.005368 0.010023 0.004918 0.009586 0.004493 0.009172 0.013859 0.008789 -0.001157 0.008431 0.003375 -0.001679 0.003034 -0.006902 0.002691 0.002519 0.002350 -0.002702 0.002011 -0.007925 -0.012984 -0.013170 -0.008483 -0.008687 -0.008898 -0.014000 -0.009346 -0.004700 0.004826 0.004589 0.009239 0.004129 -0.000978 -0.001202 -0.006310 0.003228 0.007885 0.002780 0.002562 -0.002538 0.002127 0.001911 0.001696 0.001483 0.001270 0.001059 0.000849 0.005523 0.010202 0.005121 0.004929 -0.000143 0.004552 0.004368 0.004187 0.004009 0.008719 0.008552 -0.001376 0.003347 0.008073 0.007921 0.007776 0.007638 0.007505 0.002495 0.007255 -0.012399 -0.002759 0.001995 0.001866 0.006623 -0.003267 -0.003392 0.006249 0.006127 0.006010 0.010782 0.015563 0.005704 0.005619 0.015306 0.005470 0.010290 0.005351 0.000416 0.000366 0.000316 0.000266 0.000217 0.005052 0.000122 0.000077 -0.004852 -0.000017 0.004818 0.004773 0.004732 0.004695 0.004662 -0.010020 -0.005173 -0.005215 -0.010146 -0.015084 -0.010268 -0.020111 -0.005552 -0.015417 -0.010643 -0.010761 -0.006005 -0.015905 -0.011167 -0.016206 -0.011490 -0.011668 -0.011856 -0.012053 -0.012261 -0.002710 -0.002930 -0.012920 -0.008269 -0.008509 -0.013640 -0.013898 -0.004400 -0.004673 -0.004950 -0.010116 -0.010406 -0.005820 -0.006123 -0.006431 -0.011629 -0.007068 -0.007397 -0.017500 -0.008082 -0.008439 -0.003918 -0.004285 -0.004655 -0.000145 -0.000519 0.003990 0.003619 0.003251 0.002885 0.007406 0.007049 0.011581 0.006356 0.006019 0.010572 0.010249 0.009935 0.014513 0.009335 0.004165 -0.001001 0.003599 0.003319 0.003041 0.007650 0.002497 0.002230 0.001965 0.011470 0.011216 0.015855 0.015624 0.010521 0.005428 0.005222 0.009906 0.009713 0.009528 0.019120 0.018959 0.018813 0.013800 0.018566 0.008695 0.003715 0.008507 0.003538 -0.001429 0.003372 -0.001593 -0.001676 -0.001759 -0.006728 -0.016587 -0.006923 0.002735 -0.007141 -0.002371 0.002398 -0.002600 -0.002716 -0.007718 -0.002959 -0.003086 0.006553 0.001545 0.011190 0.001308 0.010964 0.005977 0.005878 0.005785 0.005696 0.005612 0.000648 0.000570 0.000491 0.005297 0.010108 0.000275 0.005094 0.014801 0.009868 0.009828 0.004912 0.019536 0.014640 0.009756 0.009765 0.019549 0.014698 0.009859 0.009912 0.014857 0.014930 0.010132 0.000459 0.000553 0.000649 -0.009024 -0.008936 0.005797 0.000999 0.001085 0.001173 0.011029 0.011126 0.011233 0.006465 0.006586 0.001829 0.006842 0.002092 0.007111 -0.002515 0.002509 0.002650 0.002794 0.002940 0.003089 0.008124 0.008282 -0.006205 -0.006046 -0.010775 -0.010630 -0.010493 -0.005481 -0.005357 -0.010122 -0.010011 -0.014793 -0.009818 -0.004852 -0.004774 -0.009584 -0.009518 -0.009460 -0.009409 0.000401 -0.009324 -0.009289 -0.004377 -0.004353 0.000551 0.000572 0.000593 -0.004269 -0.009135 -0.014009 -0.009126 -0.009134 -0.004266 -0.014054 -0.009202 -0.009241 -0.009287 -0.004458 -0.009400 -0.009465 -0.004655 0.005035 0.000078 0.000005 -0.004953 -0.000146 -0.005108 -0.010073 -0.000395 -0.005370 -0.010349 -0.010452 -0.010564 -0.015569 -0.005935 -0.010958 -0.001338 -0.006370 -0.001641 -0.001796 -0.006837 -0.007000 -0.012052 -0.007347 -0.007532 -0.007722 -0.007920 -0.003239 -0.008330 -0.008543 -0.013648 0.000772 -0.004343 0.000306 0.000072 -0.000162 -0.000397 0.009136 -0.000859 0.008681 0.003576 0.008242 0.003147 0.007822 0.017389 0.022085 0.017032 0.016877 0.016735 0.016608 0.021379 0.021283 0.021205 0.026028 0.025989 0.025972 0.021092 0.025998 0.021157 0.016334 0.026176 0.031156 0.031278 0.026541 0.031595 0.031791 0.027129 0.017606 0.022749 0.018143 0.013553 0.013857 0.009289 0.014497 0.009948 0.005408 0.010641 0.010998 0.011364 0.026392 0.031674 0.027214 0.032544 0.033018 0.038402 0.043819 0.044388 0.040110 0.045633 0.041426 0.042137 0.037999 0.043661 0.034707 0.025781 0.021761 0.003107 -0.000892 -0.004892 -0.013781 -0.017796 -0.031595 -0.040535 -0.054393 -0.063413 -0.057832 -0.071836 -0.081016 -0.090262 -0.089815 -0.094327 -0.094033 -0.103585 -0.098571 -0.098522 -0.108324 -0.108447 -0.108660 -0.099194 -0.094696 -0.075623 -0.066382 -0.057195 -0.052940 -0.024309 -0.015234 -0.001287 0.007774 0.016842 0.025924 0.025259 0.029499 0.033764 0.038057 0.027729 0.027192 0.026678 0.021302 0.020827 0.020370 0.019930 0.024390 0.014218 0.018711 0.008566 0.017965 0.012727 0.012383 0.012050 0.011726 0.011412 0.006224 0.015693 0.010523 0.015129 0.009981 0.009724 0.004591 0.014115 0.008998 0.003888 0.003666 0.003447 0.003230 0.012784 0.017465 0.022161 0.017106 0.021834 0.021696 0.016692 0.021470 0.021381 0.021311 0.016374 0.021218 0.021197 0.021192 0.021206 0.026120 0.016405 0.011587 0.011663 0.006864 0.006955 0.007052 0.002271 0.002376 -0.007286 -0.007185 -0.007091 -0.002118 0.002853 0.007826 0.012806 0.008028 0.013025 0.008265 0.008396 0.008534 0.003794 0.008826 0.004097 0.014024 0.009310 0.009488 0.009674 0.009868 0.005186 0.010276 0.010491 0.005830 -0.003709 -0.008368 -0.008150 -0.007938 -0.007733 -0.012418 -0.007346 0.002604 -0.002095 -0.001913 -0.001732 -0.001552 -0.006258 -0.010969 -0.010805 -0.005765 -0.005615 -0.015238 -0.005336 -0.000324 -0.005080 -0.009839 0.000045 0.000161 -0.004607 0.000389 -0.004382 0.000611 -0.004164 -0.004058 0.000929 -0.003852 0.001133 -0.003650 0.001332 -0.003453 0.001528 0.006509 0.016381 0.001845 0.006847 -0.002797 -0.007559 -0.002560 -0.002447 -0.007220 0.002654 -0.002123 -0.006901 -0.011686 -0.006711 -0.001743 -0.001660 0.003306 -0.006377 -0.006298 0.003544 -0.001263 -0.001187 -0.001112 -0.005922 -0.005853 0.003979 -0.005721 -0.005658 -0.000716 -0.005543 -0.010374 -0.005445 -0.005406 -0.005370 -0.010223 -0.005317 -0.005299 -0.005285 -0.010160 -0.000391 -0.005275 0.004489 0.004489 0.004493 0.009384 0.009399 0.009422 0.004568 0.004603 -0.000243 -0.005089 -0.000171 0.004747 0.004784 -0.004942 -0.009789 -0.009759 -0.004854 -0.009721 -0.014595 0.000054 0.000051 0.004932 0.009817 0.004943 0.000072 0.000086 0.000100 0.000113 -0.004757 0.000137 0.000147 0.000157 0.000167 -0.004706 0.005068 0.000195 0.005090 0.000221 0.005120 0.000256 0.000275 -0.004589 -0.004573 0.005208 0.000340 -0.004527 -0.014281 -0.014280 -0.004523 0.000347 -0.004551 -0.004568 -0.009474 -0.009503 -0.009541 -0.009586 -0.014523 -0.014588 -0.004897 -0.009862 -0.005068 -0.014930 -0.015036 -0.015154 -0.020169 -0.025201 -0.020486 -0.015787 -0.015986 -0.021082 -0.026196 -0.031331 -0.026724 -0.027023 -0.017577 -0.027681 -0.018273 -0.013763 -0.019033 -0.014550 -0.010080 -0.010502 -0.006049 -0.001600 0.002847 0.002412 0.006863 0.006436 0.006014 0.015366 0.000310 0.009674 0.004394 0.004002 0.013382 0.003236 0.002861 0.002489 -0.002766 -0.003139 -0.003514 -0.008776 -0.004278 -0.004667 -0.005060 -0.000573 -0.010739 -0.001378 -0.006669 -0.002198 -0.007498 -0.007919 -0.008347 -0.003897 -0.009219 -0.009665 -0.005235 -0.000809 0.003617 -0.001723 0.002704 0.007133 0.006684 0.011125 0.005807 0.010261 0.009840 0.014312 0.009027 0.013518 0.013135 0.017648 0.012408 0.007177 0.016605 0.016278 0.015965 0.010781 0.020258 0.015100 0.019722 0.009709 0.004588 0.009238 0.013897 0.003914 0.003703 -0.001389 0.008170 0.003084 0.007768 0.007575 0.002504 0.002319 0.011904 0.001963 0.001791 0.001621 -0.003432 -0.013371 -0.008670 -0.013744 -0.009061 -0.009270 -0.014370 -0.009714 -0.009951 -0.015079 -0.005568 -0.000946 -0.001209 -0.006356 -0.001741 -0.006895 -0.007171 -0.002569 -0.002853 -0.003140 -0.008313 -0.003725 -0.008908 -0.004330 -0.019292 -0.014734 -0.010188 -0.010535 -0.001122 -0.001478 -0.006720 -0.002199 0.002320 0.001957 0.006480 0.011008 0.010661 0.000555 0.005101 0.004768 0.004439 -0.000771 -0.001097 0.003459 -0.001749 0.002809 0.007370 0.007052 0.006741 0.016203 0.020794 0.015635 0.020257 0.010243 0.005122 0.009773 0.009549 0.004448 0.014003 0.008917 0.003839 0.013416 0.013236 0.008184 0.008022 0.012750 0.012605 0.007587 0.012343 0.012225 0.007234 0.016900 0.016812 0.016738 0.016679 0.011748 0.011712 0.006802 0.016549 0.011657 0.016544 0.006792 0.016582 0.006849 0.006890 0.002053 0.002102 0.002152 -0.002680 -0.012398 -0.012358 -0.007445 -0.012305 -0.007408 -0.012286 -0.007405 -0.007414 -0.007430 -0.002568 0.002292 -0.002614 -0.002638 0.007104 0.016852 0.011961 0.016848 0.011982 0.026661 0.021827 0.021894 0.012212 0.017192 0.022186 0.017430 0.012689 0.012843 0.008123 0.003409 -0.001301 0.003756 0.003931 -0.005658 -0.010368 -0.010202 -0.014929 -0.005016 -0.014643 -0.009631 -0.009510 -0.009398 -0.004409 -0.009192 -0.004214 0.000760 0.005735 -0.003938 0.001039 0.006016 -0.003654 -0.008443 -0.003471 -0.008270 0.001576 -0.003228 -0.003151 -0.007961 -0.003009 -0.002944 -0.002881 -0.007705 -0.007651 -0.007603 -0.007562 -0.007527 -0.007498 -0.012360 -0.002579 -0.007453 -0.012333 -0.012339 -0.007471 -0.017262 -0.012415 -0.017346 -0.017408 -0.017484 -0.022458 -0.022567 -0.022695 -0.022842 -0.018123 -0.008536 -0.008724 -0.013802 -0.014009 -0.019111 -0.019345 -0.019594 -0.019861 -0.020143 -0.015558 -0.020754 -0.025968 -0.016551 -0.012031 -0.012406 -0.007907 -0.008298 -0.008696 -0.004218 0.000257 -0.005036 -0.000565 0.003906 0.008380 0.007976 0.002696 0.002301 0.001909 0.001518 0.001128 -0.004144 0.000347 0.009724 -0.000428 0.004072 0.003691 0.013081 0.007830 0.002586 0.007112 0.006759 0.016180 0.006079 0.010635 0.010315 0.005120 0.014582 0.019171 0.014008 0.008857 0.013482 0.013233 0.012995 0.017653 0.012556 0.017239 0.017051 0.011994 0.011830 0.021445 0.026193 0.021195 0.021098 0.011251 0.016066 0.016009 0.011082 0.011048 0.011023 0.015892 0.006121 0.015892 0.011024 0.020817 0.011091 0.025794 0.016099 0.011301 0.011396 0.011501 0.016500 0.021512 0.021658 0.016938 0.017116 0.012424 0.017510 0.017727 0.017959 0.018206 0.003815 0.008964 0.014120 0.014404 0.014700 0.015008 0.010445 0.005890 0.015992 0.011455 -0.002840 -0.002486 -0.002133 0.003102 -0.001429 -0.010845 -0.000734 -0.005276 0.004830 0.010056 0.010407 0.010766 0.016018 0.011515 0.011906 0.007422 0.002945 -0.001530 -0.006006 -0.005603 0.004563 0.000082 0.005368 0.000890 0.006182 -0.003174 -0.002764 -0.002356 -0.001951 -0.001547 -0.001144 -0.005626 -0.000345 0.000052 0.010217 0.005738 0.001264 0.001675 0.002088 -0.002382 -0.011738 -0.011335 -0.015826 -0.005678 -0.005303 -0.009816 -0.019221 -0.013990 -0.013655 -0.018215 -0.017906 -0.017612 -0.017333 -0.021952 -0.011937 -0.016584 -0.011477 -0.006379 -0.006171 -0.005967 -0.005769 -0.010459 -0.000507 -0.005206 -0.005026 -0.004850 -0.004678 -0.004510 -0.009230 -0.013957 -0.008928 -0.013674 -0.003780 -0.003657 -0.008420 -0.008307 -0.008201 -0.008101 -0.008009 -0.003038 -0.007839 -0.002877 -0.012571 -0.007622 -0.012448 -0.007517 -0.002591 0.002332 -0.002511 -0.007355 0.002446 -0.002403 0.002514 -0.002335 0.002583 -0.002266 -0.002233 0.002683 0.002717 -0.002131 -0.002096 0.007704 0.007743 0.002905 0.002953 -0.001881 0.007936 -0.001777 0.003161 -0.001667 0.003273 0.003330 -0.001493 0.008334 0.003517 0.003586 0.003658 0.008617 0.003815 0.008785 0.008878 0.008978 0.009085 0.009200 0.004439 0.004566 -0.000188 0.004826 0.004960 0.000214 0.010120 0.010267 0.020190 0.020362 0.020551 0.015873 0.020976 0.026096 0.021470 0.031514 0.022048 0.027253 0.032479 0.032849 0.033246 0.038555 0.039011 0.044384 0.035142 0.045465 0.036289 0.046680 0.047341 0.043158 0.039010 0.039779 0.040580 0.026764 0.022737 0.018729 0.009853 0.005869 0.001890 -0.011856 -0.020727 -0.029616 -0.038529 -0.042590 -0.056454 -0.065481 -0.079447 -0.088594 -0.097815 -0.102233 -0.101851 -0.111322 -0.111118 -0.120773 -0.115877 -0.115960 -0.111256 -0.106644 -0.097237 -0.092794 -0.078660 -0.074359 -0.050584 -0.041502 -0.027572 -0.018548 -0.004655 -0.005418 -0.001302 0.007697 0.011819 0.011066 0.020091 0.014480 0.008881 0.003290 0.007469 0.011654 0.006082 0.005398 0.004718 0.004043 0.008255 0.007590 0.011815 0.006281 0.010522 0.014770 0.009263 0.013532 0.012928 0.012335 0.006867 0.011174 0.015490 0.010050 -0.000265 -0.000812 0.003524 -0.001905 0.002433 0.006772 0.001349 0.000811 0.010042 0.014398 0.008997 0.018255 0.012877 0.012393 0.011920 0.016341 0.015891 0.010570 0.005258 -0.000050 0.004411 0.003991 0.008458 0.003164 0.002757 0.012121 0.006842 0.011337 0.015841 0.015475 0.020005 0.014784 0.014459 0.019030 0.004081 0.013555 0.008389 0.012997 0.012733 0.002710 0.012227 0.007101 0.016633 0.006643 0.006426 0.011099 0.010897 0.010704 0.015403 0.005464 0.000413 0.000247 0.004964 0.004802 0.004644 -0.000395 -0.005433 -0.010476 -0.005760 -0.005933 -0.001227 0.003479 0.003303 0.008014 0.012732 0.012576 0.012431 0.012296 0.012171 0.007172 -0.002705 -0.012584 -0.002938 0.001823 0.001700 0.001579 -0.003425 0.001337 -0.003669 -0.003793 -0.003921 0.005716 0.005590 0.005469 0.005352 0.005239 0.010015 0.009915 0.004940 0.009736 0.004772 -0.005071 -0.000267 -0.000347 0.004457 0.014148 0.014084 0.018914 0.013993 0.009083 0.009065 0.009054 -0.000717 0.009047 0.004166 0.009057 -0.000696 0.009086 0.004223 0.009132 0.014049 0.009209 0.004377 -0.000452 0.004487 0.004546 -0.000275 -0.000213 -0.000151 -0.004973 -0.000031 0.004911 0.009857 0.009928 0.000238 0.000316 0.005279 0.000479 0.000562 0.005530 0.000735 -0.004060 0.000910 0.000997 0.005968 0.006061 0.001274 -0.003511 -0.008300 -0.008211 0.001639 -0.003162 0.001803 0.001885 0.001969 -0.002830 0.007021 -0.002658 0.002313 -0.002483 -0.002396 -0.012080 -0.012005 -0.007057 -0.011882 -0.011833 -0.011794 -0.001997 -0.006853 -0.006831 -0.006815 -0.011689 -0.006804 -0.011692 -0.011707 -0.016615 -0.011769 -0.016701 -0.016762 -0.021721 -0.016931 -0.021922 -0.012280 -0.007532 -0.007674 -0.017590 -0.012869 -0.008159 -0.003455 -0.008523 -0.013597 -0.008915 -0.009124 -0.009340 -0.009564 -0.014681 -0.014925 -0.010298 -0.005679 -0.010833 -0.006228 -0.006513 -0.001918 0.002675 0.002386 0.002099 -0.003070 -0.008242 -0.013421 -0.008843 -0.014040 -0.004596 -0.009809 -0.005262 -0.005603 -0.005948 -0.006299 -0.006655 -0.011900 -0.002503 -0.012644 -0.008144 0.001233 -0.004040 0.005335 0.000063 -0.000326 -0.000714 0.003780 -0.001490 0.007891 0.002626 -0.002636 0.006751 0.006376 -0.008646 -0.004139 -0.014288 -0.014680 -0.010201 -0.010614 -0.011036 -0.011467 -0.007023 -0.007469 -0.007922 -0.008381 -0.013731 -0.019092 -0.014701 -0.015207 -0.015725 -0.016256 -0.021684 -0.012478 -0.017935 -0.018523 -0.019126 -0.019745 -0.010612 -0.011256 -0.011910 -0.002805 -0.003470 0.005629 0.000081 -0.000582 -0.006131 0.002968 0.002301 0.001636 0.000973 0.000310 0.004532 0.003873 0.003217 0.017217 0.011694 