0.085470 0.085470 0.075702 0.075702 0.070818 0.075702 0.065934 0.065934 0.065934 0.065934 0.065934 0.065934 0.080586 0.061050 0.065934 0.065934 0.075702 0.080586 0.075702 0.075702 0.061050 0.061050 0.061050 0.061050 0.056166 0.061050 0.065934 0.065934 0.075702 0.070818 0.070818 0.061050 0.070818 0.075702 0.085470 0.090354 0.095238 0.090354 0.090354 0.095238 0.085470 0.090354 0.085470 0.080586 0.075702 0.080586 0.080586 0.075702 0.075702 0.080586 0.080586 0.070818 0.065934 0.070818 0.061050 0.061050 0.061050 0.065934 0.061050 0.065934 0.075702 0.061050 0.056166 0.061050 0.056166 0.056166 0.056166 0.061050 0.046398 0.046398 0.056166 0.051282 0.041514 0.041514 0.036630 0.036630 0.041514 0.036630 0.031746 0.046398 0.036630 0.031746 0.026862 0.031746 0.026862 0.031746 0.026862 0.026862 0.026862 0.026862 0.031746 0.026862 0.036630 0.041514 0.031746 0.036630 0.026862 0.041514 0.036630 0.031746 0.031746 0.026862 0.031746 0.031746 0.026862 0.026862 0.021978 0.021978 0.026862 0.021978 0.026862 0.012210 0.017094 0.017094 0.026862 0.021978 0.031746 0.026862 0.031746 0.026862 0.026862 0.021978 0.031746 0.036630 0.026862 0.026862 0.026862 0.031746 0.031746 0.036630 0.036630 0.036630 0.026862 0.026862 0.026862 0.026862 0.026862 0.026862 0.021978 0.021978 0.026862 0.021978 0.021978 0.021978 0.021978 0.021978 0.026862 0.026862 0.031746 0.031746 0.031746 0.031746 0.031746 0.026862 0.031746 0.036630 0.026862 0.036630 0.041514 0.041514 0.041514 0.036630 0.031746 0.031746 0.031746 0.031746 0.031746 0.031746 0.021978 0.026862 0.026862 0.026862 0.026862 0.031746 0.026862 0.026862 0.031746 0.036630 0.041514 0.031746 0.031746 0.031746 0.031746 0.031746 0.026862 0.021978 0.012210 0.012210 0.002442 -0.002442 -0.012210 -0.012210 -0.021978 -0.012210 -0.026862 -0.036630 -0.046398 -0.056166 -0.061050 -0.075702 -0.085470 -0.095238 -0.095238 -0.100122 -0.100122 -0.109890 -0.109890 -0.114774 -0.119658 -0.119658 -0.109890 -0.114774 -0.105006 -0.095238 -0.080586 -0.070818 -0.065934 -0.051282 -0.041514 -0.031746 -0.026862 -0.017094 -0.007326 0.002442 0.017094 0.017094 0.012210 0.012210 0.007326 0.007326 0.012210 0.012210 0.021978 0.021978 0.012210 0.012210 0.012210 0.007326 0.007326 0.002442 0.002442 0.002442 0.007326 0.012210 0.007326 0.007326 0.017094 0.012210 0.017094 0.012210 0.017094 0.012210 0.007326 0.012210 0.007326 -0.002442 0.002442 0.007326 0.002442 -0.002442 -0.002442 0.002442 0.007326 0.002442 0.007326 0.007326 0.007326 0.007326 0.002442 0.002442 0.002442 0.002442 -0.002442 0.007326 -0.002442 0.012210 0.012210 0.007326 0.007326 0.012210 0.017094 0.021978 0.012210 0.021978 0.017094 0.012210 0.012210 0.002442 0.007326 0.002442 0.007326 0.007326 0.007326 0.002442 0.002442 -0.002442 0.002442 -0.002442 -0.002442 0.002442 -0.002442 0.002442 -0.002442 -0.002442 -0.007326 0.007326 0.007326 0.007326 -0.002442 0.002442 0.007326 -0.002442 0.007326 0.002442 0.007326 0.012210 0.007326 0.012210 0.012210 0.007326 0.007326 0.012210 0.012210 0.017094 0.017094 0.017094 0.026862 0.026862 0.026862 0.026862 0.021978 0.017094 0.017094 0.017094 0.012210 0.002442 0.002442 0.021978 0.012210 0.002442 0.007326 0.002442 0.007326 0.002442 0.012210 0.012210 0.021978 0.021978 0.026862 0.012210 0.012210 0.012210 0.007326 0.012210 0.017094 0.012210 0.017094 0.007326 0.007326 0.007326 0.012210 0.007326 0.007326 0.002442 0.002442 0.007326 0.007326 0.007326 0.007326 0.007326 0.002442 0.007326 0.007326 0.007326 0.012210 0.012210 0.017094 0.002442 0.012210 0.012210 0.017094 0.007326 0.012210 0.007326 0.012210 0.012210 0.007326 0.007326 0.002442 0.007326 0.007326 0.002442 0.007326 0.002442 0.007326 0.007326 0.002442 0.002442 -0.002442 -0.002442 -0.007326 -0.007326 -0.012210 -0.012210 -0.012210 -0.007326 -0.007326 -0.012210 -0.007326 -0.007326 -0.007326 -0.007326 -0.012210 -0.012210 -0.012210 -0.017094 -0.017094 -0.017094 -0.026862 -0.017094 -0.021978 -0.026862 -0.026862 -0.021978 -0.021978 -0.031746 -0.026862 -0.026862 -0.021978 -0.017094 -0.007326 -0.012210 -0.017094 -0.012210 -0.012210 -0.012210 -0.007326 -0.012210 -0.012210 -0.012210 -0.017094 -0.007326 -0.012210 -0.012210 -0.012210 -0.012210 -0.021978 -0.012210 -0.021978 -0.021978 -0.017094 -0.017094 -0.021978 -0.017094 -0.017094 -0.021978 -0.026862 -0.031746 -0.026862 -0.041514 -0.036630 -0.031746 -0.026862 -0.026862 -0.021978 -0.021978 -0.031746 -0.021978 -0.031746 -0.021978 -0.021978 -0.026862 -0.026862 -0.021978 -0.026862 -0.026862 -0.026862 -0.031746 -0.026862 -0.017094 -0.012210 -0.007326 -0.002442 -0.012210 -0.017094 -0.002442 -0.007326 -0.007326 -0.012210 -0.007326 -0.007326 -0.007326 -0.007326 -0.002442 -0.002442 -0.007326 -0.002442 0.002442 0.002442 0.002442 0.012210 0.007326 0.007326 0.017094 0.021978 0.021978 0.017094 0.026862 0.021978 0.026862 0.026862 0.026862 0.026862 0.021978 0.021978 0.017094 0.012210 0.017094 0.007326 0.012210 0.017094 0.017094 0.017094 0.017094 0.021978 0.021978 0.012210 0.026862 0.026862 0.031746 0.026862 0.026862 0.026862 0.026862 0.021978 0.021978 0.021978 0.017094 0.012210 0.007326 0.017094 0.021978 0.017094 0.017094 0.017094 0.021978 0.017094 0.012210 0.021978 0.017094 0.017094 0.021978 0.017094 0.031746 0.031746 0.026862 0.031746 0.031746 0.026862 0.026862 0.021978 0.021978 0.026862 0.031746 0.031746 0.031746 0.031746 0.031746 0.021978 0.017094 0.012210 0.017094 0.026862 0.021978 0.021978 0.021978 0.026862 0.021978 0.026862 0.026862 0.026862 0.021978 0.021978 0.021978 0.026862 0.021978 0.021978 0.017094 0.017094 0.021978 0.017094 0.017094 0.017094 0.021978 0.021978 0.021978 0.021978 0.017094 0.021978 0.026862 0.026862 0.026862 0.026862 0.026862 0.021978 0.026862 0.031746 0.026862 0.031746 0.031746 0.021978 0.036630 0.031746 0.031746 0.031746 0.031746 0.026862 0.026862 0.031746 0.026862 0.031746 0.041514 0.041514 0.041514 0.036630 0.031746 0.031746 0.036630 0.041514 0.036630 0.041514 0.041514 0.046398 0.041514 0.041514 0.046398 0.051282 0.051282 0.051282 0.056166 0.056166 0.061050 0.051282 0.051282 0.056166 0.051282 0.046398 0.046398 0.051282 0.041514 0.041514 0.036630 0.046398 0.031746 0.041514 0.041514 0.026862 0.031746 0.041514 0.031746 0.036630 0.036630 0.036630 0.036630 0.041514 0.041514 0.036630 0.041514 0.031746 0.026862 0.031746 0.031746 0.026862 0.031746 0.031746 0.036630 0.026862 0.026862 0.031746 0.031746 0.036630 0.036630 0.036630 0.031746 0.031746 0.036630 0.031746 0.021978 0.026862 0.031746 0.031746 0.031746 0.036630 0.031746 0.031746 0.036630 0.036630 0.031746 0.031746 0.031746 0.026862 0.021978 0.031746 0.026862 0.031746 0.031746 0.021978 0.021978 0.017094 0.021978 0.021978 0.026862 0.021978 0.017094 0.021978 0.021978 0.026862 0.021978 0.026862 0.021978 0.026862 0.021978 0.026862 0.012210 0.007326 0.007326 0.012210 0.017094 0.012210 0.007326 0.012210 0.012210 0.012210 0.012210 0.017094 0.021978 0.021978 0.026862 0.026862 0.026862 0.026862 0.021978 0.021978 0.017094 0.017094 0.017094 0.017094 0.021978 0.021978 0.041514 0.036630 0.031746 0.026862 0.026862 0.031746 0.026862 0.026862 0.031746 0.036630 0.031746 0.031746 0.041514 0.031746 0.031746 0.031746 0.026862 0.021978 0.021978 0.021978 0.021978 0.021978 0.026862 0.031746 0.031746 0.036630 0.036630 0.041514 0.041514 0.036630 0.031746 0.041514 0.031746 0.041514 0.036630 0.026862 0.031746 0.031746 0.031746 0.041514 0.036630 0.031746 0.026862 0.031746 0.026862 0.031746 0.026862 0.031746 0.031746 0.041514 0.041514 0.041514 0.036630 0.036630 0.036630 0.026862 0.026862 0.026862 0.026862 0.026862 0.031746 0.041514 0.031746 0.031746 0.041514 0.031746 0.026862 0.021978 0.021978 0.036630 0.031746 0.031746 0.036630 0.036630 0.041514 0.041514 0.041514 0.046398 0.036630 0.036630 0.031746 0.031746 0.036630 0.031746 0.031746 0.026862 0.036630 0.026862 0.031746 0.031746 0.026862 0.036630 0.036630 0.026862 0.036630 0.041514 0.036630 0.026862 0.031746 0.031746 0.031746 0.026862 0.026862 0.026862 0.026862 0.026862 0.026862 0.021978 0.021978 0.026862 0.021978 0.021978 0.021978 0.021978 0.026862 0.026862 0.031746 0.031746 0.041514 0.041514 0.041514 0.026862 0.036630 0.036630 0.031746 0.036630 0.031746 0.026862 0.026862 0.021978 0.031746 0.036630 0.031746 0.031746 0.026862 0.021978 0.026862 0.031746 0.026862 0.026862 0.031746 0.026862 0.021978 0.026862 0.026862 0.031746 0.031746 0.036630 0.026862 0.036630 0.026862 0.031746 0.026862 0.021978 0.026862 0.026862 0.026862 0.026862 0.031746 0.026862 0.026862 0.026862 0.021978 0.017094 0.021978 0.012210 0.021978 0.026862 0.026862 0.021978 0.021978 0.017094 0.021978 0.021978 0.026862 0.026862 0.021978 0.026862 0.026862 0.026862 0.026862 0.031746 0.031746 0.036630 0.031746 0.041514 0.041514 0.036630 0.036630 0.031746 0.026862 0.031746 0.031746 0.021978 0.026862 0.031746 0.026862 0.026862 0.036630 0.031746 0.036630 0.031746 0.031746 0.031746 0.031746 0.036630 0.046398 0.036630 0.036630 0.046398 0.031746 0.036630 0.031746 0.041514 0.036630 0.031746 0.041514 0.036630 0.026862 0.031746 0.026862 0.036630 0.031746 0.031746 0.031746 0.026862 0.031746 0.026862 0.031746 0.026862 0.026862 0.031746 0.021978 0.041514 0.026862 0.036630 0.026862 0.026862 0.021978 0.021978 0.021978 0.021978 0.017094 0.031746 0.021978 0.021978 0.026862 0.021978 0.012210 0.017094 0.021978 0.026862 0.017094 0.017094 0.012210 0.012210 0.012210 0.017094 0.021978 0.017094 0.021978 0.017094 0.021978 0.026862 0.026862 0.026862 0.026862 0.031746 0.041514 0.031746 0.036630 0.036630 0.046398 0.041514 0.041514 0.031746 0.031746 0.036630 0.036630 0.036630 0.031746 0.031746 0.026862 0.012210 0.007326 0.012210 0.012210 0.002442 0.007326 -0.002442 -0.007326 -0.017094 -0.021978 -0.036630 -0.046398 -0.056166 -0.056166 -0.070818 -0.075702 -0.085470 -0.090354 -0.100122 -0.105006 -0.114774 -0.119658 -0.119658 -0.119658 -0.119658 -0.109890 -0.100122 -0.090354 -0.085470 -0.075702 -0.061050 -0.051282 -0.041514 -0.021978 -0.012210 -0.002442 -0.002442 0.007326 0.012210 0.007326 -0.002442 -0.002442 -0.002442 0.002442 -0.002442 -0.002442 -0.007326 -0.007326 -0.007326 -0.007326 -0.007326 -0.007326 -0.002442 -0.007326 -0.007326 -0.002442 -0.002442 0.002442 0.002442 -0.002442 0.002442 0.002442 -0.002442 0.002442 0.002442 0.002442 0.007326 0.007326 0.012210 0.002442 0.007326 0.007326 0.007326 -0.002442 0.002442 0.002442 0.002442 -0.002442 0.002442 0.007326 0.002442 0.002442 -0.002442 -0.002442 -0.002442 0.012210 0.007326 0.012210 0.002442 -0.002442 0.002442 -0.002442 0.007326 0.002442 0.002442 0.002442 -0.002442 -0.002442 -0.002442 -0.002442 -0.002442 -0.002442 -0.002442 0.002442 -0.002442 0.002442 -0.007326 -0.002442 -0.002442 -0.002442 -0.017094 -0.017094 -0.012210 -0.007326 -0.002442 -0.007326 -0.012210 -0.007326 -0.002442 -0.002442 0.007326 -0.007326 -0.007326 -0.002442 -0.007326 -0.007326 -0.002442 -0.002442 -0.012210 -0.007326 -0.002442 -0.002442 -0.007326 -0.002442 0.007326 0.002442 -0.002442 -0.007326 -0.012210 -0.002442 -0.002442 -0.002442 -0.002442 0.007326 0.002442 0.007326 0.012210 0.002442 0.012210 0.007326 -0.002442 0.002442 -0.002442 0.002442 0.007326 0.012210 0.012210 0.017094 0.017094 0.026862 0.007326 0.007326 0.002442 -0.002442 -0.002442 -0.002442 0.007326 -0.002442 0.012210 0.017094 0.007326 0.012210 0.017094 0.017094 0.017094 0.012210 0.007326 0.017094 0.021978 0.026862 0.021978 0.026862 0.026862 0.021978 0.012210 0.012210 0.012210 0.017094 0.021978 0.017094 0.007326 0.012210 0.012210 0.012210 0.007326 0.007326 0.007326 0.007326 0.002442 0.002442 -0.002442 0.002442 0.007326 0.002442 0.002442 0.017094 0.017094 0.017094 0.017094 0.017094 0.017094 0.021978 0.021978 0.021978 0.021978 0.026862 0.026862 0.026862 0.026862 0.021978 0.031746 0.031746 0.026862 0.026862 0.021978 0.026862 0.021978 0.021978 0.017094 0.012210 0.012210 0.012210 0.021978 0.017094 0.017094 0.021978 0.021978 0.017094 0.012210 0.007326 0.007326 0.007326 0.012210 0.002442 0.007326 0.007326 0.007326 0.012210 0.012210 0.017094 0.012210 0.012210 0.017094 0.007326 0.002442 0.007326 0.007326 0.007326 0.002442 0.002442 0.002442 0.002442 0.007326 0.007326 0.007326 0.012210 0.002442 0.007326 0.007326 0.007326 0.007326 0.002442 0.012210 0.012210 -0.002442 0.002442 -0.002442 0.002442 -0.007326 0.002442 0.002442 0.002442 -0.007326 -0.002442 0.002442 -0.002442 0.002442 0.007326 0.007326 0.012210 0.012210 0.017094 0.017094 0.021978 0.026862 0.026862 0.031746 0.026862 0.026862 0.021978 0.026862 0.031746 0.036630 0.031746 0.036630 0.031746 0.031746 0.041514 0.041514 0.036630 0.046398 0.046398 0.051282 0.056166 0.051282 0.046398 0.046398 0.056166 0.051282 0.056166 0.056166 0.056166 0.056166 0.051282 0.051282 0.056166 0.061050 0.056166 0.051282 0.046398 0.046398 0.046398 0.046398 0.046398 0.046398 0.036630 0.046398 0.046398 0.046398 0.046398 0.036630 0.046398 0.046398 0.036630 0.041514 0.046398 0.046398 0.051282 0.046398 0.041514 0.041514 0.041514 0.041514 0.046398 0.036630 0.036630 0.036630 0.036630 0.036630 0.031746 0.036630 0.036630 0.041514 0.041514 0.036630 0.031746 0.031746 0.031746 0.041514 0.041514 0.036630 0.036630 0.041514 0.046398 0.041514 0.046398 0.031746 0.031746 0.036630 0.031746 0.026862 0.041514 0.036630 0.026862 0.041514 0.036630 0.036630 0.036630 0.036630 0.036630 0.046398 0.041514 0.046398 0.046398 0.046398 0.051282 0.056166 0.051282 0.051282 0.056166 0.051282 0.061050 0.051282 0.056166 0.061050 0.061050 0.061050 0.056166 0.061050 0.061050 0.065934 0.056166 0.065934 0.070818 0.061050 0.061050 0.065934 0.070818 0.056166 0.065934 0.061050 0.065934 0.061050 0.070818 0.056166 0.065934 0.061050 0.065934 0.065934 0.070818 0.070818 0.065934 0.065934 0.065934 0.070818 0.065934 0.065934 0.065934 0.061050 0.056166 0.065934 0.065934 0.070818 0.065934 0.070818 0.070818 0.065934 0.075702 0.070818 0.070818 0.075702 0.070818 0.075702 0.065934 0.070818 0.065934 0.070818 0.061050 0.061050 0.061050 0.061050 0.061050 0.065934 0.065934 0.065934 0.061050 0.061050 0.061050 0.061050 0.056166 0.056166 0.061050 0.056166 0.061050 0.061050 0.061050 0.056166 0.061050 0.061050 0.065934 0.056166 0.051282 0.061050 0.061050 0.061050 0.061050 0.061050 0.070818 0.065934 0.065934 0.065934 0.061050 0.056166 0.056166 0.056166 0.061050 0.070818 0.061050 0.065934 0.061050 0.065934 0.065934 0.065934 0.065934 0.061050 0.065934 0.061050 0.061050 0.065934 0.070818 0.065934 0.065934 0.065934 0.065934 0.065934 0.056166 0.056166 0.065934 0.061050 0.061050 0.061050 0.061050 0.056166 0.056166 0.056166 0.056166 0.051282 0.046398 0.046398 0.051282 0.046398 0.051282 0.051282 0.046398 0.061050 0.056166 0.051282 0.061050 0.056166 0.051282 0.051282 0.051282 0.056166 0.061050 0.046398 0.056166 0.056166 0.065934 0.061050 0.056166 0.061050 0.061050 0.065934 0.056166 0.061050 0.061050 0.061050 0.061050 0.070818 0.065934 0.070818 0.061050 0.065934 0.065934 0.061050 0.070818 0.070818 0.065934 0.065934 0.075702 0.065934 0.075702 0.080586 0.080586 0.080586 0.075702 0.070818 0.070818 0.070818 0.065934 0.070818 0.070818 0.070818 0.080586 0.075702 0.090354 0.090354 0.085470 0.080586 0.085470 0.085470 0.080586 0.085470 0.090354 0.090354 0.095238 0.090354 0.090354 0.090354 0.090354 0.095238 0.095238 0.095238 0.090354 0.090354 0.090354 0.085470 0.090354 0.095238 0.095238 0.100122 0.100122 0.100122 0.100122 0.105006 0.095238 0.100122 0.100122 0.095238 0.100122 0.105006 0.105006 0.100122 0.095238 0.100122 0.100122 0.100122 0.105006 0.109890 0.105006 0.109890 0.109890 0.114774 0.114774 0.119658 0.109890 0.119658 0.109890 0.109890 0.109890 0.109890 0.109890 0.114774 0.114774 0.114774 0.114774 0.109890 0.109890 0.114774 0.114774 0.119658 0.109890 0.114774 0.105006 0.105006 0.100122 0.109890 0.119658 0.119658 0.114774 0.109890 0.105006 0.119658 0.105006 0.105006 0.109890 0.105006 0.109890 0.105006 0.109890 0.114774 0.119658 0.119658 0.114774 0.114774 0.119658 0.119658 0.119658 0.119658 0.119658 0.119658 0.119658 0.124542 0.124542 0.119658 0.119658 0.109890 0.114774 0.114774 0.109890 0.095238 0.100122 0.105006 0.100122 0.095238 0.095238 0.090354 0.105006 0.095238 0.100122 0.100122 0.100122 0.105006 0.105006 0.100122 0.105006 0.095238 0.090354 0.095238 0.090354 0.080586 0.090354 0.090354 0.090354 0.090354 0.095238 0.100122 0.100122 0.100122 0.105006 0.105006 0.090354 0.085470 0.075702 0.075702 0.080586 0.075702 0.080586 0.085470 0.085470 0.085470 0.085470 0.090354 0.090354 0.100122 0.095238 0.095238 0.100122 0.095238 0.090354 0.090354 0.085470 0.090354 0.080586 0.085470 0.085470 0.080586 0.075702 0.075702 0.070818 0.075702 0.070818 0.075702 0.085470 0.090354 0.085470 0.085470 0.090354 0.085470 0.090354 0.085470 0.090354 0.080586 0.090354 0.085470 0.090354 0.090354 0.095238 0.095238 0.090354 0.095238 0.105006 0.095238 0.105006 0.100122 0.095238 0.095238 0.095238 0.095238 0.090354 0.080586 0.085470 0.085470 0.080586 0.090354 0.085470 0.090354 0.095238 0.090354 0.095238 0.090354 0.090354 0.095238 0.090354 0.095238 0.090354 0.095238 0.095238 0.080586 0.080586 0.090354 0.090354 0.095238 0.090354 0.085470 0.095238 0.095238 0.090354 0.095238 0.090354 0.090354 0.085470 0.085470 0.090354 0.080586 0.090354 0.090354 0.080586 0.075702 0.070818 0.070818 0.070818 0.070818 0.070818 0.080586 0.070818 0.080586 0.090354 0.090354 0.085470 0.080586 0.070818 0.075702 0.065934 0.061050 0.061050 0.056166 0.061050 0.056166 0.046398 0.041514 0.017094 0.017094 0.002442 -0.002442 -0.012210 -0.026862 -0.031746 -0.031746 -0.031746 -0.036630 -0.046398 -0.051282 -0.051282 -0.056166 -0.051282 -0.046398 -0.031746 -0.026862 -0.017094 -0.007326 0.002442 0.012210 0.031746 0.051282 0.065934 0.065934 0.085470 0.085470 0.090354 0.090354 0.100122 0.095238 0.095238 0.100122 0.100122 0.095238 0.095238 0.090354 0.100122 0.100122 0.100122 0.095238 0.100122 0.100122 0.105006 0.100122 0.105006 0.100122 0.105006 0.109890 0.105006 0.105006 0.114774 0.114774 0.114774 0.119658 0.109890 0.114774 0.105006 0.114774 0.105006 0.109890 0.105006 0.119658 0.114774 0.119658 0.119658 0.119658 0.119658 0.124542 0.124542 0.124542 0.119658 0.129426 0.114774 0.124542 0.124542 0.124542 0.114774 0.124542 0.124542 0.124542 0.119658 0.124542 0.119658 0.124542 0.129426 0.129426 0.124542 0.114774 0.129426 0.129426 0.129426 0.134310 0.134310 0.134310 0.144078 0.139194 0.139194 0.134310 0.129426 0.124542 0.139194 0.134310 0.139194 0.139194 0.134310 0.124542 0.124542 0.119658 0.124542 0.129426 0.129426 0.129426 0.124542 0.119658 0.129426 0.124542 0.109890 0.114774 0.119658 0.124542 0.119658 0.124542 0.124542 0.124542 0.124542 0.119658 0.129426 0.124542 0.119658 0.119658 0.114774 0.119658 0.119658 0.124542 0.119658 0.119658 0.114774 0.119658 0.109890 0.109890 0.100122 0.109890 0.105006 0.119658 0.119658 0.119658 0.109890 0.105006 0.100122 0.105006 0.100122 0.100122 0.100122 0.100122 0.100122 0.095238 0.100122 0.100122 0.095238 0.100122 0.100122 0.105006 0.109890 0.105006 0.109890 0.114774 0.114774 0.109890 0.105006 0.105006 0.114774 0.109890 0.105006 0.105006 0.100122 0.109890 0.109890 0.109890 0.109890 0.109890 0.105006 0.109890 0.109890 0.119658 0.124542 0.119658 0.119658 0.119658 0.119658 0.114774 0.109890 0.109890 0.114774 0.109890 0.109890 0.105006 0.109890 0.119658 0.105006 0.105006 0.105006 0.105006 0.105006 0.100122 0.100122 0.095238 0.105006 0.095238 0.100122 0.100122 0.105006 0.105006 0.105006 0.100122 0.109890 0.109890 0.105006 0.105006 0.105006 0.109890 0.095238 0.105006 0.109890 0.109890 0.109890 0.109890 0.109890 0.114774 0.100122 0.095238 0.090354 0.090354 0.085470 0.080586 0.085470 0.090354 0.090354 0.090354 0.090354 0.090354 0.085470 0.090354 0.090354 0.090354 0.085470 0.090354 0.090354 0.090354 0.085470 0.085470 0.085470 0.085470 0.075702 0.080586 0.075702 0.075702 0.075702 0.075702 0.070818 0.070818 0.065934 0.070818 0.075702 0.070818 0.070818 0.070818 0.075702 0.075702 0.080586 0.080586 0.090354 0.080586 0.080586 0.085470 0.085470 0.085470 0.095238 0.085470 0.090354 0.085470 0.090354 0.085470 0.090354 0.085470 0.090354 0.090354 0.085470 0.080586 0.085470 0.090354 0.100122 0.090354 0.100122 0.100122 0.100122 0.095238 0.100122 0.095238 0.095238 0.095238 0.100122 0.100122 0.100122 0.105006 0.109890 0.100122 0.105006 0.109890 0.119658 0.124542 0.124542 0.124542 0.124542 0.124542 0.119658 0.114774 0.119658 0.124542 0.129426 0.129426 0.124542 0.124542 0.129426 0.124542 0.114774 0.109890 0.109890 0.109890 0.109890 0.109890 0.100122 0.100122 0.109890 0.105006 0.109890 0.105006 0.105006 0.100122 0.100122 0.109890 0.105006 0.100122 0.105006 0.100122 0.100122 0.095238 0.100122 0.100122 0.100122 0.105006 0.105006 0.109890 0.109890 0.109890 0.114774 0.109890 0.105006 0.105006 0.105006 0.105006 0.105006 0.105006 0.109890 0.109890 0.109890 0.114774 0.109890 0.114774 0.100122 0.100122 0.105006 0.105006 0.100122 0.100122 0.090354 0.090354 0.090354 0.090354 0.085470 0.085470 0.080586 0.095238 0.095238 0.080586 0.080586 0.075702 0.085470 0.080586 0.080586 0.085470 0.085470 0.090354 0.085470 0.085470 0.090354 0.095238 0.090354 0.080586 0.080586 0.090354 0.090354 0.095238 0.090354 0.095238 0.090354 0.085470 0.090354 0.090354 0.085470 0.080586 0.080586 0.085470 0.095238 0.095238 0.100122 0.105006 0.095238 0.090354 0.095238 0.095238 0.090354 0.095238 0.100122 0.095238 0.095238 0.100122 0.095238 0.100122 0.095238 0.095238 0.100122 0.095238 0.095238 0.095238 0.100122 0.100122 0.090354 0.095238 0.100122 0.095238 0.095238 0.090354 0.100122 0.100122 0.100122 0.105006 0.105006 0.105006 0.105006 0.100122 0.095238 0.090354 0.100122 0.095238 0.100122 0.085470 0.090354 0.085470 0.095238 0.100122 0.100122 0.090354 0.100122 0.095238 0.095238 0.090354 0.090354 0.090354 0.095238 0.085470 0.080586 0.090354 0.080586 0.085470 0.080586 0.075702 0.080586 0.075702 0.070818 0.075702 0.075702 0.075702 0.075702 0.080586 0.080586 0.075702 0.075702 0.080586 0.080586 0.080586 0.080586 0.075702 0.075702 0.080586 0.080586 0.095238 0.085470 0.085470 0.090354 0.090354 0.085470 0.085470 0.085470 0.085470 0.090354 0.090354 0.085470 0.085470 0.095238 0.085470 0.080586 0.080586 0.075702 0.075702 0.075702 0.070818 0.065934 0.065934 0.065934 0.070818 0.080586 0.080586 0.080586 0.075702 0.070818 0.080586 0.080586 0.080586 0.070818 0.080586 0.085470 0.075702 0.070818 0.070818 0.070818 0.070818 0.080586 0.075702 0.080586 0.075702 0.085470 0.080586 0.085470 0.080586 0.095238 0.100122 0.090354 0.080586 0.080586 0.085470 0.075702 0.070818 0.075702 0.075702 0.075702 0.075702 0.075702 0.070818 0.075702 0.080586 0.080586 0.080586 0.085470 0.075702 0.075702 0.080586 0.080586 0.090354 0.085470 0.075702 0.070818 0.075702 0.070818 0.075702 0.061050 0.061050 0.061050 0.065934 0.070818 0.075702 0.080586 0.070818 0.065934 0.070818 0.070818 0.075702 0.065934 0.075702 0.075702 0.070818 0.061050 0.070818 0.065934 0.065934 0.075702 0.080586 0.075702 0.080586 0.075702 0.075702 0.080586 0.080586 0.085470 0.080586 0.080586 0.075702 0.070818 0.080586 0.080586 0.080586 0.085470 0.080586 0.090354 0.080586 0.085470 0.080586 0.085470 0.080586 0.080586 0.075702 0.075702 0.065934 0.070818 0.070818 0.070818 0.075702 0.075702 0.080586 0.080586 0.085470 0.075702 0.080586 0.075702 0.075702 0.070818 0.075702 0.070818 0.075702 0.080586 0.085470 0.080586 0.080586 0.080586 0.080586 0.070818 0.065934 0.065934 0.056166 0.056166 0.046398 0.041514 0.046398 0.051282 0.051282 0.056166 0.061050 0.061050 0.065934 0.065934 0.065934 0.065934 0.065934 0.075702 0.070818 0.070818 0.070818 0.070818 0.070818 0.075702 0.065934 0.070818 0.075702 0.070818 0.080586 0.080586 0.085470 0.080586 0.070818 0.070818 0.075702 0.065934 0.056166 0.065934 0.075702 0.075702 0.080586 0.080586 0.080586 0.070818 0.085470 0.075702 0.080586 0.070818 0.070818 0.080586 0.075702 0.080586 0.080586 0.085470 0.075702 0.075702 0.070818 0.075702 0.080586 0.070818 0.070818 0.075702 0.070818 0.080586 0.080586 0.090354 0.080586 0.080586 0.080586 0.090354 0.100122 0.105006 0.105006 0.100122 0.090354 0.100122 0.100122 0.105006 0.095238 0.100122 0.095238 0.095238 0.090354 0.095238 0.100122 0.095238 0.095238 0.095238 0.080586 0.080586 0.080586 0.080586 0.080586 0.080586 0.085470 0.080586 0.085470 0.085470 0.085470 0.090354 0.090354 0.090354 0.100122 0.100122 0.095238 0.095238 0.100122 0.090354 0.095238 0.090354 0.095238 0.090354 0.095238 0.095238 0.090354 0.090354 0.090354 0.080586 0.085470 0.085470 0.090354 0.085470 0.090354 0.085470 0.085470 0.090354 0.090354 0.080586 0.085470 0.085470 0.085470 0.080586 0.095238 0.085470 0.090354 0.085470 0.085470 0.085470 0.085470 0.085470 0.085470 0.075702 0.075702 0.075702 0.080586 0.080586 0.080586 0.090354 0.085470 0.080586 0.075702 0.070818 0.061050 0.065934 0.056166 0.046398 0.041514 0.041514 0.026862 0.026862 0.021978 0.002442 -0.007326 -0.021978 -0.026862 -0.036630 -0.041514 -0.056166 -0.070818 -0.070818 -0.080586 -0.075702 -0.085470 -0.080586 -0.090354 -0.090354 -0.090354 -0.080586 -0.080586 -0.075702 -0.065934 -0.046398 -0.036630 -0.021978 -0.012210 -0.002442 0.007326 0.012210 0.017094 0.026862 0.026862 0.041514 0.046398 0.046398 0.036630 0.031746 0.031746 0.031746 0.026862 0.036630 0.026862 0.031746 0.031746 0.026862 0.026862 0.026862 0.031746 0.031746 0.036630 0.031746 0.041514 0.041514 0.041514 0.041514 0.041514 0.041514 0.041514 0.031746 0.046398 0.046398 0.046398 0.056166 0.056166 0.061050 0.056166 0.046398 0.056166 0.051282 0.051282 0.056166 0.061050 0.061050 0.061050 0.061050 0.056166 0.056166 0.056166 0.056166 0.056166 0.056166 0.056166 0.061050 0.061050 0.061050 0.051282 0.051282 0.046398 0.051282 0.056166 0.051282 0.041514 0.051282 0.046398 0.051282 0.046398 0.036630 0.036630 0.046398 0.051282 0.046398 0.051282 0.051282 0.041514 0.056166 0.061050 0.056166 0.061050 0.061050 0.065934 0.061050 0.070818 0.070818 0.075702 0.075702 0.070818 0.075702 0.080586 0.085470 0.080586 0.075702 0.070818 0.070818 0.065934 0.070818 0.075702 0.075702 0.080586 0.070818 0.075702 0.075702 0.070818 0.075702 0.080586 0.080586 0.070818 0.075702 0.080586 0.080586 0.070818 0.085470 0.085470 0.090354 0.085470 0.085470 0.085470 0.080586 0.080586 0.080586 0.090354 0.080586 0.085470 0.090354 0.080586 0.085470 0.085470 0.080586 0.085470 0.085470 0.090354 0.080586 0.080586 0.090354 0.070818 0.065934 0.070818 0.070818 0.065934 0.065934 0.075702 0.075702 0.070818 0.075702 0.075702 0.080586 0.075702 0.080586 0.075702 0.085470 0.080586 0.080586 0.085470 0.090354 0.090354 0.090354 0.085470 0.080586 0.080586 0.080586 0.080586 0.075702 0.070818 0.075702 0.075702 0.080586 0.075702 0.080586 0.070818 0.085470 0.075702 0.080586 0.090354 0.085470 0.090354 0.090354 0.085470 0.085470 0.085470 0.080586 0.075702 0.080586 0.075702 0.080586 0.085470 0.080586 0.090354 0.085470 0.085470 0.090354 0.080586 0.085470 0.085470 0.075702 0.070818 0.065934 0.061050 0.065934 0.061050 0.051282 0.056166 0.061050 0.056166 0.056166 0.056166 0.061050 0.051282 0.051282 0.056166 0.056166 0.051282 0.056166 0.046398 0.046398 0.041514 0.041514 0.041514 0.046398 0.046398 0.051282 0.046398 0.046398 0.036630 0.041514 0.041514 0.051282 0.046398 0.041514 0.041514 0.041514 0.036630 0.036630 0.041514 0.041514 0.031746 0.036630 0.031746 0.031746 0.031746 0.036630 0.036630 0.041514 0.036630 0.046398 0.036630 0.046398 0.041514 0.046398 0.041514 0.056166 0.051282 0.051282 0.046398 0.041514 0.046398 0.041514 0.046398 0.046398 0.051282 0.046398 0.046398 0.051282 0.046398 0.046398 0.051282 0.056166 0.056166 0.056166 0.061050 0.056166 0.051282 0.056166 0.056166 0.046398 0.046398 0.036630 0.036630 0.031746 0.026862 0.021978 0.026862 0.021978 0.031746 0.041514 0.041514 0.041514 0.041514 0.036630 0.041514 0.036630 0.041514 0.041514 0.046398 0.041514 0.041514 0.031746 0.036630 0.036630 0.036630 0.041514 0.036630 0.036630 0.041514 0.046398 0.036630 0.041514 0.046398 0.046398 0.036630 0.041514 0.051282 0.046398 0.046398 0.051282 0.041514 0.046398 0.041514 0.046398 0.031746 0.026862 0.026862 0.031746 0.031746 0.031746 0.026862 0.021978 0.026862 0.026862 0.017094 0.026862 0.021978 0.031746 0.026862 0.026862 0.026862 0.026862 0.026862 0.026862 0.026862 0.026862 0.026862 0.036630 0.036630 0.041514 0.036630 0.041514 0.041514 0.041514 0.046398 0.046398 0.056166 0.051282 0.051282 0.041514 0.051282 0.051282 0.051282 0.051282 0.041514 0.041514 0.036630 0.046398 0.041514 0.036630 0.041514 0.031746 0.031746 0.031746 0.031746 0.026862 0.036630 0.026862 0.026862 0.036630 0.036630 0.031746 0.026862 0.026862 0.026862 0.026862 0.031746 0.031746 0.026862 0.026862 0.026862 0.021978 0.021978 0.012210 0.012210 0.012210 0.017094 0.012210 0.021978 0.021978 0.021978 0.017094 0.031746 0.031746 0.026862 0.026862 0.021978 0.031746 0.031746 0.026862 0.026862 0.031746 0.031746 0.026862 0.021978 0.021978 0.017094 0.007326 0.012210 0.017094 0.012210 0.012210 0.012210 0.012210 0.012210 0.007326 0.007326 0.012210 0.012210 0.012210 0.002442 0.002442 0.002442 0.007326 -0.002442 0.002442 0.002442 0.002442 0.002442 -0.002442 -0.002442 0.007326 -0.002442 -0.002442 0.002442 0.002442 0.002442 -0.002442 0.002442 0.007326 0.007326 0.012210 0.012210 0.012210 0.017094 0.002442 0.007326 0.012210 0.007326 -0.002442 -0.002442 -0.002442 -0.012210 -0.007326 -0.007326 -0.017094 -0.012210 -0.017094 -0.012210 -0.017094 -0.021978 -0.021978 -0.021978 -0.021978 -0.017094 -0.012210 -0.012210 -0.017094 -0.012210 -0.021978 -0.017094 -0.007326 -0.007326 -0.007326 -0.002442 0.002442 -0.002442 -0.002442 -0.007326 -0.012210 -0.002442 -0.007326 -0.007326 -0.002442 -0.012210 -0.007326 -0.002442 -0.002442 -0.012210 -0.007326 -0.007326 -0.007326 -0.007326 -0.012210 -0.017094 -0.012210 -0.007326 -0.007326 -0.017094 -0.017094 -0.007326 -0.012210 -0.021978 -0.026862 -0.021978 -0.021978 -0.026862 -0.021978 -0.017094 -0.012210 -0.017094 -0.012210 -0.012210 -0.007326 -0.002442 -0.007326 -0.012210 -0.012210 -0.021978 -0.021978 -0.017094 -0.021978 -0.021978 -0.031746 -0.021978 -0.017094 -0.021978 -0.026862 -0.026862 -0.026862 -0.021978 -0.017094 -0.026862 -0.031746 -0.031746 -0.031746 -0.021978 -0.026862 -0.017094 -0.026862 -0.021978 -0.021978 -0.017094 -0.026862 -0.031746 -0.021978 -0.021978 -0.021978 -0.017094 -0.017094 -0.021978 -0.021978 -0.021978 -0.017094 -0.021978 -0.017094 -0.031746 -0.036630 -0.031746 -0.026862 -0.031746 -0.036630 -0.036630 -0.031746 -0.031746 -0.036630 -0.041514 -0.041514 -0.041514 -0.041514 -0.041514 -0.041514 -0.036630 -0.031746 -0.031746 -0.031746 -0.031746 -0.036630 -0.036630 -0.031746 -0.041514 -0.036630 -0.031746 -0.031746 -0.036630 -0.031746 -0.041514 -0.031746 -0.031746 -0.031746 -0.031746 -0.031746 -0.041514 -0.041514 -0.036630 -0.041514 -0.031746 -0.026862 -0.026862 -0.031746 -0.031746 -0.031746 -0.041514 -0.031746 -0.036630 -0.031746 -0.041514 -0.026862 -0.031746 -0.026862 -0.031746 -0.031746 -0.036630 -0.036630 -0.026862 -0.036630 -0.041514 -0.036630 -0.036630 -0.036630 -0.031746 -0.036630 -0.041514 -0.036630 -0.031746 -0.031746 -0.026862 -0.031746 -0.031746 -0.031746 -0.036630 -0.031746 -0.031746 -0.036630 -0.041514 -0.041514 -0.041514 -0.041514 -0.036630 -0.031746 -0.031746 -0.021978 -0.026862 -0.026862 -0.026862 -0.026862 -0.026862 -0.031746 -0.036630 -0.031746 -0.036630 -0.041514 -0.036630 -0.031746 -0.036630 -0.036630 -0.036630 -0.026862 -0.026862 -0.021978 -0.021978 -0.021978 -0.021978 -0.021978 -0.026862 -0.031746 -0.026862 -0.036630 -0.026862 -0.041514 -0.036630 -0.031746 -0.031746 -0.036630 -0.036630 -0.046398 -0.036630 -0.041514 -0.041514 -0.036630 -0.046398 -0.036630 -0.041514 -0.031746 -0.036630 -0.041514 -0.036630 -0.036630 -0.031746 -0.036630 -0.041514 -0.051282 -0.046398 -0.041514 -0.041514 -0.046398 -0.051282 -0.046398 -0.051282 -0.046398 -0.051282 -0.051282 -0.046398 -0.051282 -0.051282 -0.046398 -0.046398 -0.046398 -0.051282 -0.046398 -0.056166 -0.051282 -0.056166 -0.061050 -0.056166 -0.056166 -0.046398 -0.056166 -0.056166 -0.056166 -0.056166 -0.051282 -0.051282 -0.046398 -0.051282 -0.051282 -0.056166 -0.061050 -0.061050 -0.051282 -0.056166 -0.056166 -0.061050 -0.056166 -0.051282 -0.056166 -0.056166 -0.061050 -0.061050 -0.056166 -0.056166 -0.056166 -0.056166 -0.051282 -0.056166 -0.046398 -0.046398 -0.046398 -0.046398 -0.041514 -0.036630 -0.031746 -0.036630 -0.031746 -0.026862 -0.031746 -0.036630 -0.031746 -0.041514 -0.041514 -0.051282 -0.046398 -0.056166 -0.065934 -0.075702 -0.070818 -0.070818 -0.080586 -0.090354 -0.090354 -0.114774 -0.119658 -0.134310 -0.144078 -0.158730 -0.163614 -0.183150 -0.183150 -0.202686 -0.207570 -0.207570 -0.212454 -0.212454 -0.217338 -0.222222 -0.227106 -0.217338 -0.207570 -0.197802 -0.188034 -0.178266 -0.163614 -0.144078 -0.134310 -0.119658 -0.105006 -0.085470 -0.085470 -0.070818 -0.070818 -0.061050 -0.061050 -0.061050 -0.065934 -0.065934 -0.065934 -0.070818 -0.065934 -0.070818 -0.061050 -0.065934 -0.070818 -0.070818 -0.061050 -0.061050 -0.061050 -0.056166 -0.056166 -0.056166 -0.061050 -0.051282 -0.056166 -0.061050 -0.051282 -0.056166 -0.051282 -0.046398 -0.041514 -0.046398 -0.046398 -0.046398 -0.046398 -0.056166 -0.051282 -0.046398 -0.046398 -0.046398 -0.051282 -0.056166 -0.046398 -0.046398 -0.041514 -0.046398 -0.041514 -0.046398 -0.031746 -0.031746 -0.031746 -0.026862 -0.031746 -0.031746 -0.036630 -0.036630 -0.036630 -0.036630 -0.026862 -0.031746 -0.031746 -0.041514 -0.036630 -0.031746 -0.026862 -0.031746 -0.036630 -0.036630 -0.036630 -0.036630 -0.036630 -0.036630 -0.046398 -0.051282 -0.046398 -0.056166 -0.051282 -0.056166 -0.056166 -0.051282 -0.051282 -0.051282 -0.056166 -0.051282 -0.056166 -0.056166 -0.061050 -0.061050 -0.061050 -0.061050 -0.061050 -0.065934 -0.056166 -0.061050 -0.061050 -0.065934 -0.061050 -0.061050 -0.061050 -0.056166 -0.065934 -0.070818 -0.075702 -0.070818 -0.065934 -0.070818 -0.075702 -0.075702 -0.075702 -0.075702 -0.085470 -0.080586 -0.075702 -0.070818 -0.070818 -0.065934 -0.070818 -0.070818 -0.070818 -0.070818 -0.061050 -0.070818 -0.075702 -0.075702 -0.075702 -0.075702 -0.075702 -0.070818 -0.075702 -0.080586 -0.085470 -0.080586 -0.075702 -0.070818 -0.075702 -0.085470 -0.090354 -0.080586 -0.090354 -0.085470 -0.085470 -0.085470 -0.090354 -0.080586 -0.080586 -0.080586 -0.075702 -0.070818 -0.080586 -0.085470 -0.085470 -0.085470 -0.090354 -0.085470 -0.075702 -0.080586 -0.080586 -0.090354 -0.085470 -0.085470 -0.090354 -0.085470 -0.090354 -0.085470 -0.080586 -0.080586 -0.075702 -0.075702 -0.080586 -0.080586 -0.075702 -0.070818 -0.075702 -0.075702 -0.080586 -0.075702 -0.080586 -0.090354 -0.085470 -0.085470 -0.075702 -0.080586 -0.080586 -0.075702 -0.080586 -0.085470 -0.090354 -0.090354 -0.085470 -0.090354 -0.090354 -0.090354 -0.095238 -0.095238 -0.095238 -0.090354 -0.095238 -0.095238 -0.100122 -0.095238 -0.095238 -0.095238 -0.100122 -0.100122 -0.100122 -0.109890 -0.105006 -0.095238 -0.095238 -0.109890 -0.109890 -0.105006 -0.105006 -0.109890 -0.114774 -0.105006 -0.105006 -0.100122 -0.100122 -0.095238 -0.100122 -0.100122 -0.100122 -0.105006 -0.100122 -0.100122 -0.100122 -0.105006 -0.095238 -0.100122 -0.105006 -0.105006 -0.100122 -0.105006 -0.100122 -0.109890 -0.100122 -0.100122 -0.090354 -0.090354 -0.090354 -0.090354 -0.090354 -0.095238 -0.090354 -0.080586 -0.085470 -0.080586 -0.075702 -0.075702 -0.075702 -0.080586 -0.070818 -0.080586 -0.080586 -0.070818 -0.080586 -0.070818 -0.075702 -0.075702 -0.085470 -0.075702 -0.075702 -0.075702 -0.080586 -0.075702 -0.085470 -0.075702 -0.080586 -0.080586 -0.080586 -0.080586 -0.080586 -0.080586 -0.065934 -0.075702 -0.075702 -0.075702 -0.080586 -0.070818 -0.070818 -0.070818 -0.070818 -0.070818 -0.070818 -0.075702 -0.061050 -0.065934 -0.065934 -0.070818 -0.065934 -0.065934 -0.070818 -0.070818 -0.075702 -0.075702 -0.075702 -0.075702 -0.075702 -0.080586 -0.080586 -0.075702 -0.075702 -0.075702 -0.070818 -0.070818 -0.070818 -0.075702 -0.070818 -0.075702 -0.075702 -0.075702 -0.080586 -0.075702 -0.070818 -0.080586 -0.070818 -0.075702 -0.065934 -0.070818 -0.065934 -0.070818 -0.061050 -0.061050 -0.061050 -0.065934 -0.065934 -0.061050 -0.056166 -0.061050 -0.061050 -0.061050 -0.061050 -0.056166 -0.065934 -0.070818 -0.070818 -0.070818 -0.070818 -0.075702 -0.070818 -0.080586 -0.080586 -0.075702 -0.075702 -0.070818 -0.070818 -0.070818 -0.080586 -0.070818 -0.070818 -0.070818 -0.080586 -0.085470 -0.095238 -0.090354 -0.090354 -0.090354 -0.095238 -0.080586 -0.090354 -0.085470 -0.085470 -0.075702 -0.095238 -0.090354 -0.090354 -0.085470 -0.085470 -0.075702 -0.080586 -0.085470 -0.080586 -0.075702 -0.070818 -0.075702 -0.075702 -0.075702 -0.070818 -0.070818 -0.070818 -0.075702 -0.080586 -0.080586 -0.075702 -0.085470 -0.080586 -0.085470 -0.080586 -0.090354 -0.090354 -0.085470 -0.085470 -0.080586 -0.070818 -0.085470 -0.080586 -0.085470 -0.080586 -0.090354 -0.090354 -0.090354 -0.080586 -0.070818 -0.065934 -0.070818 -0.061050 -0.070818 -0.075702 -0.075702 -0.080586 -0.085470 -0.090354 -0.090354 -0.095238 -0.100122 -0.090354 -0.090354 -0.080586 -0.090354 -0.095238 -0.090354 -0.085470 -0.090354 -0.090354 -0.095238 -0.095238 -0.085470 -0.090354 -0.090354 -0.085470 -0.090354 -0.090354 -0.080586 -0.090354 -0.085470 -0.095238 -0.090354 -0.095238 -0.095238 -0.090354 -0.090354 -0.095238 -0.095238 -0.095238 -0.095238 -0.100122 -0.090354 -0.090354 -0.095238 -0.095238 -0.090354 -0.090354 -0.100122 -0.095238 -0.085470 -0.090354 -0.085470 -0.080586 -0.080586 -0.075702 -0.075702 -0.075702 -0.070818 -0.080586 -0.080586 -0.075702 -0.080586 -0.080586 -0.085470 -0.080586 -0.095238 -0.085470 -0.085470 -0.080586 -0.090354 -0.085470 -0.095238 -0.100122 -0.105006 -0.105006 -0.109890 -0.105006 -0.109890 -0.105006 -0.105006 -0.100122 -0.095238 -0.095238 -0.090354 -0.095238 -0.095238 -0.095238 -0.100122 -0.095238 -0.100122 -0.100122 -0.100122 -0.095238 -0.095238 -0.095238 -0.095238 -0.090354 -0.085470 -0.095238 -0.090354 -0.095238 -0.090354 -0.095238 -0.085470 -0.105006 -0.095238 -0.100122 -0.105006 -0.100122 -0.100122 -0.095238 -0.090354 -0.085470 -0.075702 -0.075702 -0.075702 -0.075702 -0.080586 -0.080586 -0.080586 -0.085470 -0.080586 -0.085470 -0.090354 -0.085470 -0.090354 -0.090354 -0.090354 -0.090354 -0.090354 -0.085470 -0.085470 -0.090354 -0.090354 -0.090354 -0.095238 -0.095238 -0.090354 -0.090354 -0.090354 -0.085470 -0.085470 -0.075702 -0.080586 -0.085470 -0.090354 -0.085470 -0.090354 -0.085470 -0.085470 -0.090354 -0.095238 -0.095238 -0.100122 -0.100122 -0.100122 -0.105006 -0.100122 -0.095238 -0.100122 -0.095238 -0.095238 -0.090354 -0.095238 -0.095238 -0.100122 -0.105006 -0.105006 -0.100122 -0.105006 -0.105006 -0.109890 -0.105006 -0.109890 -0.105006 -0.100122 -0.105006 -0.105006 -0.105006 -0.109890 -0.090354 -0.100122 -0.095238 -0.095238 -0.090354 -0.090354 -0.095238 -0.095238 -0.095238 -0.090354 -0.100122 -0.095238 -0.090354 -0.100122 -0.090354 -0.100122 -0.105006 -0.100122 -0.095238 -0.095238 -0.100122 -0.100122 -0.100122 -0.114774 -0.100122 -0.095238 -0.100122 -0.100122 -0.109890 -0.105006 -0.109890 -0.105006 -0.109890 -0.109890 -0.105006 -0.109890 -0.109890 -0.105006 -0.109890 -0.105006 -0.109890 -0.119658 -0.114774 -0.109890 -0.114774 -0.114774 -0.114774 -0.114774 -0.119658 -0.119658 -0.114774 -0.109890 -0.119658 -0.124542 -0.119658 -0.114774 -0.119658 -0.129426 -0.124542 -0.129426 -0.129426 -0.129426 -0.114774 -0.109890 -0.109890 -0.114774 -0.114774 -0.114774 -0.119658 -0.119658 -0.114774 -0.124542 -0.119658 -0.119658 -0.105006 -0.119658 -0.109890 -0.119658 -0.114774 -0.114774 -0.109890 -0.109890 -0.109890 -0.109890 -0.105006 -0.100122 -0.100122 -0.114774 -0.114774 -0.119658 -0.119658 -0.114774 -0.119658 -0.119658 -0.119658 -0.124542 -0.124542 -0.124542 -0.124542 -0.119658 -0.119658 -0.119658 -0.119658 -0.114774 -0.119658 -0.119658 -0.129426 -0.119658 -0.119658 -0.119658 -0.114774 -0.119658 -0.114774 -0.119658 -0.124542 -0.129426 -0.124542 -0.129426 -0.124542 -0.134310 -0.134310 -0.134310 -0.129426 -0.129426 -0.134310 -0.139194 -0.139194 -0.139194 -0.139194 -0.144078 -0.139194 -0.144078 -0.148962 -0.153846 -0.153846 -0.158730 -0.144078 -0.153846 -0.153846 -0.158730 -0.153846 -0.144078 -0.144078 -0.144078 -0.144078 -0.148962 -0.144078 -0.144078 -0.144078 -0.148962 -0.153846 -0.148962 -0.153846 -0.153846 -0.148962 -0.148962 -0.148962 -0.148962 -0.148962 -0.153846 -0.153846 -0.153846 -0.158730 -0.158730 -0.158730 -0.158730 -0.153846 -0.158730 -0.158730 -0.158730 -0.153846 -0.153846 -0.148962 -0.148962 -0.153846 -0.158730 -0.153846 -0.158730 -0.153846 -0.148962 -0.158730 -0.163614 -0.158730 -0.168498 -0.173382 -0.178266 -0.178266 -0.178266 -0.192918 -0.192918 -0.197802 -0.202686 -0.227106 -0.236874 -0.251526 -0.251526 -0.266178 -0.285714 -0.290598 -0.295482 -0.295482 -0.305250 -0.305250 -0.300366 -0.305250 -0.310134 -0.310134 -0.300366 -0.295482 -0.280830 -0.266178 -0.256410 -0.246642 -0.241758 -0.217338 -0.217338 -0.207570 -0.197802 -0.188034 -0.178266 -0.168498 -0.163614 -0.158730 -0.158730 -0.153846 -0.163614 -0.158730 -0.158730 -0.173382 -0.178266 -0.173382 -0.178266 -0.178266 -0.178266 -0.178266 -0.183150 -0.183150 -0.173382 -0.173382 -0.168498 -0.158730 -0.163614 -0.163614 -0.168498 -0.163614 -0.168498 -0.173382 -0.173382 -0.173382 -0.173382 -0.163614 -0.163614 -0.163614 -0.163614 -0.163614 -0.158730 -0.153846 -0.163614 -0.158730 -0.173382 -0.173382 -0.173382 -0.178266 -0.183150 -0.202686 -0.197802 -0.197802 -0.192918 -0.188034 -0.183150 -0.173382 -0.178266 -0.168498 -0.168498 -0.163614 -0.168498 -0.168498 -0.158730 -0.163614 -0.158730 -0.158730 -0.153846 -0.168498 -0.163614 -0.173382 -0.183150 -0.192918 -0.183150 -0.188034 -0.188034 -0.192918 -0.183150 -0.183150 -0.178266 -0.168498 -0.158730 -0.158730 -0.168498 -0.168498 -0.158730 -0.183150 -0.197802 -0.188034 -0.188034 -0.188034 -0.183150 -0.183150 -0.197802 -0.183150 -0.173382 -0.178266 -0.178266 -0.168498 -0.153846 -0.148962 -0.148962 -0.144078 -0.148962 -0.148962 -0.163614 -0.158730 -0.163614 -0.163614 -0.168498 -0.178266 -0.183150 -0.188034 -0.197802 -0.197802 -0.197802 -0.197802 -0.197802 -0.202686 -0.197802 -0.192918 -0.183150 -0.173382 -0.173382 -0.178266 -0.183150 -0.183150 -0.188034 -0.197802 -0.202686 -0.197802 -0.192918 -0.192918 -0.188034 -0.188034 -0.197802 -0.192918 -0.183150 -0.188034 -0.188034 -0.192918 -0.188034 -0.197802 -0.202686 -0.207570 -0.207570 -0.197802 -0.202686 -0.212454 -0.202686 -0.202686 -0.192918 -0.188034 -0.202686 -0.192918 -0.192918 -0.202686 -0.207570 -0.207570 -0.207570 -0.212454 -0.212454 -0.227106 -0.227106 -0.212454 -0.202686 -0.207570 -0.207570 -0.202686 -0.202686 -0.192918 -0.188034 -0.183150 -0.188034 -0.183150 -0.183150 -0.192918 -0.197802 -0.188034 -0.197802 -0.202686 -0.207570 -0.202686 -0.212454 -0.197802 -0.202686 -0.197802 -0.202686 -0.197802 -0.207570 -0.202686 -0.207570 -0.207570 -0.202686 -0.212454 -0.202686 -0.202686 -0.207570 -0.207570 -0.202686 -0.207570 -0.207570 -0.202686 -0.202686 -0.197802 -0.202686 -0.202686 -0.202686 -0.202686 -0.212454 -0.217338 -0.217338 -0.222222 -0.212454 -0.212454 -0.212454 -0.212454 -0.207570 -0.207570 -0.207570 -0.207570 -0.197802 -0.197802 -0.207570 -0.202686 -0.202686 -0.202686 -0.197802 -0.207570 -0.207570 -0.202686 -0.202686 -0.207570 -0.207570 -0.212454 -0.202686 -0.202686 -0.207570 -0.207570 -0.202686 -0.197802 -0.207570 -0.217338 -0.207570 -0.217338 -0.212454 -0.207570 -0.207570 -0.212454 -0.207570 -0.212454 -0.202686 -0.202686 -0.207570 -0.212454 -0.202686 -0.202686 -0.202686 -0.202686 -0.202686 -0.202686 -0.197802 -0.207570 -0.197802 -0.202686 -0.197802 -0.202686 -0.197802 -0.192918 -0.197802 -0.197802 -0.197802 -0.207570 -0.207570 -0.202686 -0.202686 -0.197802 -0.192918 -0.192918 -0.197802 -0.188034 -0.188034 -0.178266 -0.192918 -0.183150 -0.183150 -0.183150 -0.178266 -0.188034 -0.183150 -0.178266 -0.183150 -0.173382 -0.183150 -0.173382 -0.173382 -0.168498 -0.173382 -0.163614 -0.163614 -0.158730 -0.153846 -0.158730 -0.158730 -0.158730 -0.163614 -0.168498 -0.163614 -0.173382 -0.173382 -0.178266 -0.168498 -0.178266 -0.183150 -0.183150 -0.178266 -0.183150 -0.188034 -0.183150 -0.183150 -0.183150 -0.188034 -0.188034 -0.188034 -0.192918 -0.188034 -0.183150 -0.183150 -0.183150 -0.183150 -0.183150 -0.178266 -0.178266 -0.183150 -0.188034 -0.173382 -0.173382 -0.173382 -0.173382 -0.163614 -0.163614 -0.168498 -0.168498 -0.168498 -0.173382 -0.168498 -0.168498 -0.173382 -0.173382 -0.168498 -0.163614 -0.168498 -0.168498 -0.163614 -0.163614 -0.163614 -0.168498 -0.163614 -0.163614 -0.168498 -0.168498 -0.178266 -0.168498 -0.178266 -0.168498 -0.173382 -0.168498 -0.178266 -0.173382 -0.173382 -0.178266 -0.188034 -0.173382 -0.183150 -0.178266 -0.178266 -0.178266 -0.183150 -0.173382 -0.178266 -0.178266 -0.178266 -0.188034 -0.183150 -0.188034 -0.178266 -0.188034 -0.178266 -0.173382 -0.183150 -0.188034 -0.183150 -0.183150 -0.188034 -0.183150 -0.178266 -0.173382 -0.168498 -0.168498 -0.168498 -0.173382 -0.178266 -0.173382 -0.173382 -0.178266 -0.178266 -0.173382 -0.168498 -0.178266 -0.168498 -0.168498 -0.168498 -0.178266 -0.173382 -0.178266 -0.183150 -0.173382 -0.173382 -0.178266 -0.173382 -0.173382 -0.168498 -0.173382 -0.168498 -0.163614 -0.163614 -0.178266 -0.173382 -0.168498 -0.163614 -0.168498 -0.163614 -0.173382 -0.168498 -0.168498 -0.163614 -0.168498 -0.163614 -0.158730 -0.163614 -0.158730 -0.168498 -0.168498 -0.168498 -0.168498 -0.168498 -0.163614 -0.168498 -0.168498 -0.168498 -0.163614 -0.163614 -0.163614 -0.168498 -0.173382 -0.168498 -0.163614 -0.168498 -0.168498 -0.168498 -0.173382 -0.168498 -0.173382 -0.168498 -0.168498 -0.173382 -0.173382 -0.173382 -0.168498 -0.173382 -0.173382 -0.173382 -0.168498 -0.168498 -0.173382 -0.178266 -0.178266 -0.173382 -0.173382 -0.173382 -0.168498 -0.168498 -0.168498 -0.168498 -0.173382 -0.178266 -0.173382 -0.178266 -0.188034 -0.188034 -0.197802 -0.183150 -0.188034 -0.188034 -0.188034 -0.183150 -0.188034 -0.178266 -0.178266 -0.178266 -0.173382 -0.178266 -0.178266 -0.183150 -0.183150 -0.178266 -0.178266 -0.183150 -0.183150 -0.178266 -0.178266 -0.183150 -0.178266 -0.173382 -0.183150 -0.188034 -0.188034 -0.183150 -0.188034 -0.183150 -0.188034 -0.183150 -0.183150 -0.183150 -0.178266 -0.183150 -0.183150 -0.188034 -0.188034 -0.183150 -0.188034 -0.197802 -0.197802 -0.197802 -0.192918 -0.192918 -0.188034 -0.188034 -0.183150 -0.188034 -0.183150 -0.188034 -0.188034 -0.178266 -0.188034 -0.183150 -0.188034 -0.183150 -0.178266 -0.168498 -0.173382 -0.178266 -0.178266 -0.178266 -0.178266 -0.183150 -0.183150 -0.188034 -0.183150 -0.183150 -0.188034 -0.183150 -0.183150 -0.183150 -0.183150 -0.188034 -0.183150 -0.192918 -0.192918 -0.192918 -0.197802 -0.197802 -0.197802 -0.197802 -0.202686 -0.197802 -0.202686 -0.202686 -0.207570 -0.202686 -0.197802 -0.197802 -0.202686 -0.197802 -0.202686 -0.207570 -0.207570 -0.202686 -0.202686 -0.207570 -0.202686 -0.197802 -0.202686 -0.197802 -0.202686 -0.212454 -0.212454 -0.207570 -0.207570 -0.207570 -0.207570 -0.207570 -0.212454 -0.212454 -0.212454 -0.212454 -0.212454 -0.207570 -0.202686 -0.202686 -0.207570 -0.207570 -0.202686 -0.207570 -0.207570 -0.207570 -0.207570 -0.207570 -0.207570 -0.207570 -0.207570 -0.207570 -0.212454 -0.217338 -0.227106 -0.222222 -0.227106 -0.227106 -0.222222 -0.227106 -0.217338 -0.222222 -0.231990 -0.222222 -0.222222 -0.222222 -0.217338 -0.222222 -0.212454 -0.212454 -0.212454 -0.217338 -0.212454 -0.212454 -0.217338 -0.217338 -0.212454 -0.207570 -0.207570 -0.212454 -0.212454 -0.217338 -0.212454 -0.222222 -0.212454 -0.222222 -0.222222 -0.222222 -0.217338 -0.217338 -0.207570 -0.207570 -0.212454 -0.207570 -0.212454 -0.212454 -0.207570 -0.207570 -0.207570 -0.212454 -0.212454 -0.212454 -0.207570 -0.197802 -0.207570 -0.207570 -0.212454 -0.207570 -0.207570 -0.207570 -0.202686 -0.217338 -0.212454 -0.202686 -0.202686 -0.197802 -0.197802 -0.188034 -0.192918 -0.197802 -0.202686 -0.197802 -0.202686 -0.202686 -0.207570 -0.212454 -0.202686 -0.207570 -0.207570 -0.202686 -0.207570 -0.207570 -0.212454 -0.207570 -0.207570 -0.207570 -0.207570 -0.202686 -0.202686 -0.207570 -0.207570 -0.212454 -0.202686 -0.202686 -0.202686 -0.207570 -0.212454 -0.207570 -0.207570 -0.212454 -0.207570 -0.212454 -0.207570 -0.207570 -0.207570 -0.197802 -0.202686 -0.197802 -0.202686 -0.202686 -0.202686 -0.202686 -0.207570 -0.212454 -0.202686 -0.207570 -0.202686 -0.212454 -0.212454 -0.207570 -0.207570 -0.207570 -0.207570 -0.202686 -0.212454 -0.207570 -0.212454 -0.212454 -0.212454 -0.202686 -0.212454 -0.207570 -0.207570 -0.212454 -0.212454 -0.202686 -0.207570 -0.202686 -0.202686 -0.207570 -0.212454 -0.212454 -0.217338 -0.207570 -0.207570 -0.202686 -0.197802 -0.197802 -0.197802 -0.183150 -0.188034 -0.188034 -0.197802 -0.197802 -0.202686 -0.188034 -0.192918 -0.192918 -0.197802 -0.197802 -0.197802 -0.202686 -0.207570 -0.207570 -0.202686 -0.202686 -0.207570 -0.202686 -0.197802 -0.202686 -0.183150 -0.192918 -0.192918 -0.188034 -0.188034 -0.173382 -0.183150 -0.178266 -0.178266 -0.183150 -0.183150 -0.188034 -0.197802 -0.207570 -0.212454 -0.212454 -0.217338 -0.222222 -0.231990 -0.246642 -0.256410 -0.261294 -0.275946 -0.285714 -0.295482 -0.295482 -0.300366 -0.305250 -0.319902 -0.329670 -0.329670 -0.319902 -0.324786 -0.324786 -0.319902 -0.310134 -0.300366 -0.290598 -0.280830 -0.266178 -0.256410 -0.241758 -0.227106 -0.207570 -0.207570 -0.197802 -0.192918 -0.178266 -0.173382 -0.168498 -0.168498 -0.163614 -0.163614 -0.163614 -0.163614 -0.158730 -0.163614 -0.173382 -0.168498 -0.158730 -0.163614 -0.168498 -0.163614 -0.168498 -0.168498 -0.173382 -0.168498 -0.173382 -0.178266 -0.173382 -0.173382 -0.173382 -0.173382 -0.163614 -0.173382 -0.163614 -0.173382 -0.173382 -0.168498 -0.173382 -0.173382 -0.168498 -0.168498 -0.168498 -0.173382 -0.173382 -0.173382 -0.183150 -0.178266 -0.173382 -0.173382 -0.178266 -0.178266 -0.183150 -0.178266 -0.183150 -0.178266 -0.178266 -0.178266 -0.173382 -0.168498 -0.168498 -0.163614 -0.168498 -0.163614 -0.163614 -0.163614 -0.168498 -0.163614 -0.168498 -0.168498 -0.173382 -0.168498 -0.163614 -0.163614 -0.158730 -0.158730 -0.153846 -0.148962 -0.153846 -0.148962 -0.153846 -0.153846 -0.163614 -0.168498 -0.168498 -0.163614 -0.158730 -0.153846 -0.158730 -0.153846 -0.153846 -0.158730 -0.158730 -0.158730 -0.168498 -0.163614 -0.153846 -0.153846 -0.148962 -0.148962 -0.148962 -0.153846 -0.148962 -0.148962 -0.148962 -0.148962 -0.144078 -0.144078 -0.139194 -0.134310 -0.134310 -0.144078 -0.148962 -0.148962 -0.144078 -0.148962 -0.148962 -0.144078 -0.139194 -0.134310 -0.148962 -0.144078 -0.144078 -0.148962 -0.144078 -0.144078 -0.144078 -0.139194 -0.134310 -0.139194 -0.144078 -0.134310 -0.134310 -0.139194 -0.139194 -0.124542 -0.129426 -0.129426 -0.134310 -0.124542 -0.124542 -0.129426 -0.134310 -0.134310 -0.134310 -0.129426 -0.124542 -0.124542 -0.119658 -0.129426 -0.134310 -0.134310 -0.134310 -0.134310 -0.134310 -0.134310 -0.124542 -0.139194 -0.134310 -0.134310 -0.134310 -0.134310 -0.139194 -0.139194 -0.144078 -0.139194 -0.134310 -0.124542 -0.129426 -0.139194 -0.139194 -0.139194 -0.139194 -0.134310 -0.134310 -0.139194 -0.134310 -0.144078 -0.144078 -0.148962 -0.144078 -0.144078 -0.139194 -0.134310 -0.129426 -0.139194 -0.139194 -0.144078 -0.139194 -0.158730 -0.144078 -0.148962 -0.144078 -0.148962 -0.144078 -0.144078 -0.144078 -0.139194 -0.144078 -0.148962 -0.139194 -0.148962 -0.153846 -0.148962 -0.148962 -0.148962 -0.144078 -0.148962 -0.148962 -0.153846 -0.153846 -0.148962 -0.148962 -0.148962 -0.153846 -0.153846 -0.148962 -0.148962 -0.148962 -0.148962 -0.153846 -0.158730 -0.163614 -0.163614 -0.163614 -0.158730 -0.158730 -0.153846 -0.148962 -0.148962 -0.148962 -0.153846 -0.163614 -0.158730 -0.163614 -0.168498 -0.163614 -0.163614 -0.163614 -0.158730 -0.144078 -0.158730 -0.153846 -0.148962 -0.148962 -0.148962 -0.158730 -0.158730 -0.153846 -0.144078 -0.148962 -0.144078 -0.139194 -0.139194 -0.139194 -0.134310 -0.134310 -0.134310 -0.139194 -0.134310 -0.139194 -0.139194 -0.139194 -0.139194 -0.139194 -0.139194 -0.148962 -0.139194 -0.134310 -0.129426 -0.124542 -0.129426 -0.124542 -0.124542 -0.129426 -0.129426 -0.124542 -0.119658 -0.124542 -0.124542 -0.124542 -0.124542 -0.124542 -0.124542 -0.129426 -0.124542 -0.119658 -0.119658 -0.124542 -0.114774 -0.124542 -0.119658 -0.114774 -0.119658 -0.124542 -0.119658 -0.119658 -0.109890 -0.109890 -0.109890 -0.100122 -0.105006 -0.109890 -0.105006 -0.100122 -0.100122 -0.105006 -0.095238 -0.100122 -0.090354 -0.095238 -0.100122 -0.100122 -0.105006 -0.105006 -0.095238 -0.100122 -0.100122 -0.095238 -0.095238 -0.100122 -0.105006 -0.109890 -0.109890 -0.109890 -0.105006 -0.105006 -0.100122 -0.095238 -0.100122 -0.105006 -0.105006 -0.105006 -0.109890 -0.100122 -0.109890 -0.114774 -0.109890 -0.105006 -0.105006 -0.105006 -0.105006 -0.100122 -0.100122 -0.100122 -0.100122 -0.109890 -0.105006 -0.114774 -0.105006 -0.105006 -0.109890 -0.109890 -0.114774 -0.105006 -0.109890 -0.100122 -0.100122 -0.105006 -0.095238 -0.095238 -0.090354 -0.090354 -0.090354 -0.095238 -0.090354 -0.090354 -0.085470 -0.085470 -0.080586 -0.090354 -0.085470 -0.095238 -0.090354 -0.090354 -0.090354 -0.085470 -0.095238 -0.095238 -0.095238 -0.090354 -0.105006 -0.095238 -0.095238 -0.100122 -0.090354 -0.090354 -0.095238 -0.100122 -0.100122 -0.105006 -0.100122 -0.100122 -0.090354 -0.100122 -0.100122 -0.095238 -0.100122 -0.095238 -0.085470 -0.085470 -0.085470 -0.080586 -0.095238 -0.085470 -0.080586 -0.080586 -0.070818 -0.080586 -0.080586 -0.075702 -0.080586 -0.075702 -0.070818 -0.061050 -0.065934 -0.065934 -0.061050 -0.075702 -0.070818 -0.080586 -0.080586 -0.075702 -0.085470 -0.080586 -0.080586 -0.070818 -0.075702 -0.080586 -0.080586 -0.075702 -0.080586 -0.075702 -0.070818 -0.070818 -0.065934 -0.065934 -0.065934 -0.065934 -0.061050 -0.061050 -0.061050 -0.061050 -0.061050 -0.061050 -0.056166 -0.051282 -0.061050 -0.051282 -0.051282 -0.051282 -0.051282 -0.051282 -0.046398 -0.051282 -0.051282 -0.051282 -0.056166 -0.051282 -0.056166 -0.061050 -0.046398 -0.051282 -0.051282 -0.051282 -0.051282 -0.046398 -0.046398 -0.041514 -0.041514 -0.046398 -0.041514 -0.031746 -0.026862 -0.026862 -0.031746 -0.026862 -0.026862 -0.036630 -0.026862 -0.036630 -0.036630 -0.031746 -0.026862 -0.036630 -0.031746 -0.031746 -0.031746 -0.031746 -0.026862 -0.036630 -0.031746 -0.026862 -0.026862 -0.026862 -0.026862 -0.021978 -0.026862 -0.031746 -0.026862 -0.026862 -0.026862 -0.026862 -0.026862 -0.021978 -0.026862 -0.017094 -0.026862 -0.026862 -0.026862 -0.031746 -0.026862 -0.031746 -0.026862 -0.026862 -0.031746 -0.031746 -0.031746 -0.026862 -0.026862 -0.021978 -0.021978 -0.012210 -0.017094 -0.012210 -0.017094 -0.021978 -0.017094 -0.017094 -0.026862 -0.021978 -0.021978 -0.021978 -0.021978 -0.017094 -0.017094 -0.007326 -0.017094 -0.012210 -0.012210 -0.012210 -0.012210 -0.017094 -0.031746 -0.026862 -0.036630 -0.031746 -0.031746 -0.036630 -0.031746 -0.046398 -0.041514 -0.036630 -0.041514 -0.041514 -0.036630 -0.021978 -0.026862 -0.031746 -0.026862 -0.026862 -0.017094 -0.017094 -0.007326 -0.007326 -0.002442 -0.002442 -0.007326 -0.007326 -0.007326 -0.007326 -0.012210 -0.012210 -0.007326 -0.002442 -0.002442 -0.002442 -0.002442 -0.002442 -0.002442 -0.002442 0.007326 0.007326 0.007326 0.012210 0.021978 0.026862 0.021978 0.026862 0.026862 0.021978 0.026862 0.021978 0.026862 0.017094 0.017094 0.012210 0.026862 0.017094 0.031746 0.031746 0.036630 0.031746 0.031746 0.041514 0.031746 0.041514 0.041514 0.046398 0.046398 0.046398 0.036630 0.036630 0.036630 0.031746 0.031746 0.036630 0.036630 0.036630 0.031746 0.031746 0.031746 0.046398 0.041514 0.051282 0.046398 0.056166 0.051282 0.051282 0.051282 0.056166 0.046398 0.051282 0.046398 0.051282 0.046398 0.051282 0.051282 0.046398 0.051282 0.051282 0.061050 0.061050 0.056166 0.051282 0.051282 0.056166 0.046398 0.051282 0.051282 0.051282 0.051282 0.056166 0.061050 0.056166 0.065934 0.065934 0.070818 0.065934 0.061050 0.065934 0.061050 0.065934 0.061050 0.061050 0.065934 0.051282 0.070818 0.061050 0.051282 0.056166 0.061050 0.056166 0.070818 0.065934 0.065934 0.070818 0.065934 0.070818 0.075702 0.075702 0.075702 0.080586 0.085470 0.085470 0.080586 0.075702 0.075702 0.080586 0.085470 0.080586 0.080586 0.080586 0.080586 0.080586 0.085470 0.085470 0.080586 0.080586 0.080586 0.085470 0.080586 0.085470 0.085470 0.090354 0.080586 0.080586 0.075702 0.080586 0.080586 0.085470 0.085470 0.080586 0.085470 0.075702 0.075702 0.075702 0.075702 0.075702 0.075702 0.075702 0.065934 0.070818 0.075702 0.070818 0.075702 0.080586 0.080586 0.075702 0.070818 0.070818 0.070818 0.075702 0.080586 0.080586 0.080586 0.080586 0.080586 0.085470 0.090354 0.085470 0.085470 0.090354 0.095238 0.095238 0.100122 0.109890 0.109890 0.100122 0.109890 0.100122 0.100122 0.095238 0.095238 0.095238 0.095238 0.095238 0.100122 0.095238 0.100122 0.100122 0.100122 0.100122 0.100122 0.090354 0.090354 0.090354 0.090354 0.090354 0.085470 0.085470 0.090354 0.095238 0.090354 0.095238 0.095238 0.085470 0.085470 0.090354 0.090354 0.090354 0.090354 0.090354 0.085470 0.085470 0.085470 0.085470 0.085470 0.085470 0.085470 0.095238 0.100122 0.095238 0.095238 0.090354 0.085470 0.095238 0.100122 0.105006 0.100122 0.100122 0.095238 0.109890 0.100122 0.105006 0.100122 0.095238 0.090354 0.095238 0.100122 0.095238 0.085470 0.085470 0.080586 0.085470 0.070818 0.061050 0.056166 0.046398 0.036630 0.021978 0.017094 0.012210 -0.002442 -0.012210 -0.017094 -0.017094 -0.021978 -0.036630 -0.036630 -0.036630 -0.026862 -0.026862 -0.026862 -0.012210 -0.007326 -0.007326 0.007326 0.012210 0.031746 0.041514 0.061050 0.065934 0.075702 0.085470 0.085470 0.095238 0.090354 0.090354 0.100122 0.105006 0.109890 0.109890 0.119658 0.109890 0.114774 0.114774 0.114774 0.109890 0.114774 0.119658 0.119658 0.124542 0.124542 0.129426 0.124542 0.134310 0.134310 0.134310 0.134310 0.139194 0.139194 0.139194 0.129426 0.134310 0.129426 0.134310 0.134310 0.134310 0.139194 0.139194 0.139194 0.139194 0.144078 0.144078 0.139194 0.144078 0.139194 0.144078 0.144078 0.153846 0.153846 0.158730 0.168498 0.163614 0.158730 0.153846 0.148962 0.158730 0.158730 0.163614 0.163614 0.158730 0.163614 0.158730 0.158730 0.153846 0.153846 0.144078 0.153846 0.153846 0.153846 0.153846 0.148962 0.153846 0.163614 0.153846 0.158730 0.158730 0.153846 0.148962 0.148962 0.148962 0.153846 0.148962 0.144078 0.144078 0.153846 0.153846 0.153846 0.153846 0.158730 0.158730 0.148962 0.158730 0.153846 0.158730 0.163614 0.158730 0.163614 0.163614 0.163614 0.158730 0.158730 0.163614 0.173382 0.163614 0.163614 0.158730 0.163614 0.163614 0.158730 0.163614 0.178266 0.178266 0.173382 0.173382 0.173382 0.173382 0.168498 0.163614 0.173382 0.173382 0.168498 0.173382 0.168498 0.168498 0.153846 0.163614 0.158730 0.163614 0.163614 0.168498 0.168498 0.173382 0.168498 0.173382 0.178266 0.178266 0.173382 0.173382 0.168498 0.178266 0.173382 0.173382 0.173382 0.178266 0.178266 0.173382 0.168498 0.163614 0.168498 0.158730 0.148962 0.153846 0.158730 0.163614 0.153846 0.158730 0.153846 0.153846 0.153846 0.158730 0.158730 0.153846 0.153846 0.139194 0.144078 0.139194 0.144078 0.153846 0.148962 0.148962 0.144078 0.134310 0.134310 0.139194 0.139194 0.134310 0.134310 0.139194 0.139194 0.144078 0.134310 0.134310 0.134310 0.124542 0.124542 0.129426 0.124542 0.119658 0.124542 0.124542 0.124542 0.114774 0.124542 0.129426 0.119658 0.119658 0.129426 0.124542 0.129426 0.124542 0.119658 0.119658 0.124542 0.124542 0.124542 0.119658 0.124542 0.119658 0.124542 0.119658 0.119658 0.119658 0.109890 0.109890 0.105006 0.109890 0.109890 0.105006 0.095238 0.095238 0.095238 0.095238 0.100122 0.095238 0.090354 0.090354 0.090354 0.090354 0.090354 0.090354 0.085470 0.080586 0.075702 0.080586 0.080586 0.080586 0.085470 0.090354 0.095238 0.090354 0.095238 0.080586 0.095238 0.090354 0.095238 0.100122 0.090354 0.090354 0.095238 0.095238 0.100122 0.100122 0.105006 0.105006 0.105006 0.109890 0.105006 0.105006 0.105006 0.109890 0.109890 0.105006 0.109890 0.109890 0.114774 0.109890 0.119658 0.114774 0.124542 0.114774 0.109890 0.119658 0.114774 0.109890 0.119658 0.105006 0.109890 0.114774 0.105006 0.109890 0.109890 0.114774 0.114774 0.114774 0.109890 0.105006 0.114774 0.105006 0.105006 0.100122 0.105006 0.095238 0.095238 0.100122 0.095238 0.095238 0.095238 0.105006 0.095238 0.100122 0.100122 0.095238 0.085470 0.090354 0.090354 0.090354 0.090354 0.090354 0.085470 0.090354 0.085470 0.080586 0.090354 0.085470 0.080586 0.080586 0.085470 0.090354 0.080586 0.080586 0.080586 0.080586 0.075702 0.085470 0.080586 0.095238 0.090354 0.080586 0.080586 0.075702 0.075702 0.070818 0.065934 0.070818 0.080586 0.080586 0.085470 0.075702 0.075702 0.085470 0.090354 0.085470 0.085470 0.085470 0.080586 0.080586 0.075702 0.075702 0.075702 0.085470 0.075702 0.080586 0.075702 0.080586 0.075702 0.065934 0.075702 0.065934 0.070818 0.061050 0.070818 0.061050 0.070818 0.065934 0.065934 0.056166 0.056166 0.051282 0.056166 0.046398 0.056166 0.051282 0.041514 0.046398 0.046398 0.051282 0.051282 0.051282 0.051282 0.051282 0.041514 0.041514 0.051282 0.056166 0.046398 0.046398 0.041514 0.046398 0.046398 0.046398 0.046398 0.051282 0.051282 0.056166 0.056166 0.056166 0.051282 0.061050 0.051282 0.056166 0.056166 0.051282 0.051282 0.056166 0.051282 0.061050 0.061050 0.061050 0.056166 0.051282 0.051282 0.051282 0.041514 0.046398 0.041514 0.046398 0.051282 0.051282 0.046398 0.056166 0.051282 0.051282 0.065934 0.070818 0.070818 0.065934 0.070818 0.065934 0.061050 0.065934 0.061050 0.070818 0.065934 0.065934 0.065934 0.070818 0.070818 0.061050 0.061050 0.051282 0.051282 0.046398 0.051282 0.051282 0.061050 0.065934 0.065934 0.061050 0.061050 0.061050 0.065934 0.056166 0.056166 0.061050 0.056166 0.061050 0.056166 0.056166 0.056166 0.056166 0.061050 0.061050 0.051282 0.051282 0.051282 0.051282 0.051282 0.041514 0.036630 0.041514 0.041514 0.031746 0.031746 0.031746 0.031746 0.036630 0.026862 0.021978 0.026862 0.026862 0.021978 0.021978 0.026862 0.026862 0.026862 0.026862 0.031746 0.036630 0.031746 0.036630 0.041514 0.046398 0.041514 0.041514 0.051282 0.051282 0.046398 0.041514 0.041514 0.046398 0.051282 0.056166 0.056166 0.051282 0.051282 0.046398 0.046398 0.041514 0.041514 0.031746 0.046398 0.041514 0.051282 0.046398 0.051282 0.051282 0.041514 0.041514 0.051282 0.051282 0.056166 0.051282 0.046398 0.046398 0.051282 0.051282 0.056166 0.051282 0.046398 0.056166 0.056166 0.046398 0.041514 0.051282 0.051282 0.051282 0.056166 0.056166 0.061050 0.061050 0.056166 0.056166 0.051282 0.051282 0.041514 0.046398 0.041514 0.041514 0.036630 0.041514 0.031746 0.031746 0.036630 0.041514 0.036630 0.041514 0.036630 0.041514 0.041514 0.036630 0.031746 0.031746 0.036630 0.036630 0.031746 0.031746 0.031746 0.031746 0.031746 0.041514 0.041514 0.046398 0.036630 0.036630 0.036630 0.046398 0.041514 0.046398 0.036630 0.046398 0.046398 0.046398 0.051282 0.051282 0.051282 0.046398 0.051282 0.046398 0.036630 0.041514 0.041514 0.041514 0.041514 0.041514 0.046398 0.046398 0.046398 0.041514 0.051282 0.046398 0.056166 0.041514 0.041514 0.036630 0.031746 0.026862 0.031746 0.026862 0.041514 0.031746 0.036630 0.031746 0.036630 0.041514 0.036630 0.031746 0.036630 0.031746 0.041514 0.041514 0.041514 0.041514 0.036630 0.036630 0.036630 0.036630 0.036630 0.041514 0.031746 0.031746 0.021978 0.026862 0.017094 0.021978 0.026862 0.026862 0.012210 0.021978 0.021978 0.021978 0.021978 0.026862 0.017094 0.017094 0.012210 0.021978 0.021978 0.021978 0.017094 0.021978 0.021978 0.021978 0.012210 0.026862 0.017094 0.021978 0.021978 0.021978 0.017094 0.017094 0.012210 0.017094 0.017094 0.021978 0.021978 0.017094 0.017094 0.017094 0.017094 0.017094 0.026862 0.026862 0.026862 0.026862 0.021978 0.021978 0.017094 0.012210 0.012210 0.012210 0.017094 0.021978 0.017094 0.012210 0.017094 0.017094 0.021978 0.017094 0.017094 0.012210 0.012210 0.012210 0.017094 0.012210 0.012210 0.007326 0.017094 0.012210 0.017094 0.007326 0.021978 0.017094 0.017094 0.017094 0.017094 0.012210 0.012210 0.007326 0.012210 0.012210 0.017094 0.017094 0.017094 0.012210 0.012210 0.017094 0.017094 0.021978 0.012210 0.017094 0.021978 0.021978 0.017094 0.017094 0.017094 0.017094 0.017094 0.012210 0.017094 0.017094 0.007326 0.012210 0.017094 0.017094 0.012210 0.017094 0.017094 0.026862 0.026862 0.026862 0.021978 0.031746 0.031746 0.036630 0.036630 0.031746 0.026862 0.026862 0.021978 0.026862 0.021978 0.026862 0.031746 0.026862 0.031746 0.026862 0.031746 0.041514 0.036630 0.026862 0.026862 0.021978 0.017094 0.021978 0.021978 0.017094 0.026862 0.026862 0.026862 0.031746 0.036630 0.031746 0.031746 0.036630 0.036630 0.031746 0.026862 0.021978 0.021978 0.012210 0.017094 0.017094 0.017094 0.021978 0.021978 0.026862 0.031746 0.021978 0.021978 0.021978 0.026862 0.026862 0.026862 0.017094 0.026862 0.017094 0.021978 0.021978 0.021978 0.021978 0.026862 0.021978 0.026862 0.026862 0.026862 0.026862 0.026862 0.031746 0.021978 0.012210 0.007326 0.012210 0.007326 -0.002442 -0.002442 -0.007326 -0.007326 -0.012210 -0.017094 -0.026862 -0.036630 -0.036630 -0.051282 -0.046398 -0.056166 -0.070818 -0.080586 -0.085470 -0.095238 -0.100122 -0.119658 -0.129426 -0.139194 -0.139194 -0.134310 -0.139194 -0.144078 -0.139194 -0.139194 -0.139194 -0.129426 -0.124542 -0.114774 -0.095238 -0.095238 -0.080586 -0.065934 -0.056166 -0.046398 -0.021978 -0.017094 -0.012210 0.002442 0.007326 0.012210 0.007326 0.002442 0.002442 0.012210 0.012210 0.007326 0.007326 0.012210 0.007326 0.017094 0.007326 0.021978 0.012210 0.017094 0.012210 0.021978 0.017094 0.026862 0.031746 0.036630 0.031746 0.026862 0.021978 0.021978 0.017094 0.017094 0.021978 0.026862 0.021978 0.031746 0.026862 0.021978 0.021978 0.021978 0.021978 0.031746 0.031746 0.026862 0.021978 0.021978 0.017094 0.021978 0.021978 0.026862 0.026862 0.031746 0.026862 0.021978 0.021978 0.021978 0.017094 0.021978 0.017094 0.012210 0.012210 0.007326 0.012210 0.012210 0.017094 0.017094 0.017094 0.017094 0.021978 0.017094 0.026862 0.021978 0.026862 0.031746 0.026862 0.026862 0.026862 0.021978 0.021978 0.026862 0.026862 0.026862 0.031746 0.021978 0.017094 0.021978 0.026862 0.026862 0.031746 0.031746 0.026862 0.031746 0.026862 0.041514 0.036630 0.036630 0.041514 0.036630 0.036630 0.041514 0.036630 0.041514 0.046398 0.046398 0.046398 0.051282 0.046398 0.036630 0.046398 0.036630 0.041514 0.046398 0.036630 0.036630 0.031746 0.036630 0.031746 0.026862 0.031746 0.036630 0.036630 0.036630 0.036630 0.041514 0.041514 0.041514 0.041514 0.051282 0.046398 0.041514 0.041514 0.046398 0.041514 0.046398 0.051282 0.046398 0.051282 0.046398 0.046398 0.046398 0.051282 0.041514 0.051282 0.051282 0.051282 0.041514 0.046398 0.041514 0.041514 0.051282 0.046398 0.051282 0.051282 0.051282 0.041514 0.041514 0.046398 0.046398 0.036630 0.041514 0.036630 0.041514 0.041514 0.031746 0.026862 0.026862 0.021978 0.031746 0.026862 0.021978 0.031746 0.026862 0.026862 0.031746 0.031746 0.031746 0.031746 0.036630 0.026862 0.031746 0.021978 0.017094 0.031746 0.031746 0.036630 0.036630 0.026862 0.021978 0.026862 0.021978 0.021978 0.021978 0.026862 0.026862 0.021978 0.021978 0.021978 0.017094 0.017094 0.012210 0.017094 0.026862 0.026862 0.021978 0.031746 0.031746 0.026862 0.031746 0.036630 0.031746 0.031746 0.031746 0.026862 0.026862 0.036630 0.036630 0.036630 0.041514 0.046398 0.041514 0.041514 0.046398 0.046398 0.041514 0.036630 0.026862 0.026862 0.026862 0.026862 0.031746 0.031746 0.036630 0.036630 0.036630 0.046398 0.036630 0.031746 0.026862 0.026862 0.021978 0.026862 0.026862 0.031746 0.021978 0.031746 0.031746 0.026862 0.026862 0.036630 0.036630 0.036630 0.036630 0.036630 0.036630 0.046398 0.046398 0.046398 0.036630 0.036630 0.036630 0.036630 0.031746 0.036630 0.041514 0.051282 0.046398 0.041514 0.046398 0.041514 0.046398 0.041514 0.046398 0.041514 0.046398 0.046398 0.041514 0.051282 0.051282 0.056166 0.046398 0.046398 0.046398 0.041514 0.041514 0.041514 0.046398 0.051282 0.046398 0.041514 0.046398 0.051282 0.051282 0.051282 0.051282 0.051282 0.051282 0.046398 0.051282 0.046398 0.046398 0.051282 0.046398 0.046398 0.041514 0.046398 0.051282 0.046398 0.046398 0.051282 0.051282 0.046398 0.046398 0.051282 0.041514 0.046398 0.056166 0.051282 0.056166 0.046398 0.056166 0.061050 0.051282 0.056166 0.051282 0.056166 0.056166 0.051282 0.046398 0.051282 0.051282 0.046398 0.046398 0.051282 0.046398 0.046398 0.051282 0.051282 0.051282 0.056166 0.056166 0.056166 0.056166 0.065934 0.065934 0.056166 0.056166 0.065934 0.056166 0.061050 0.061050 0.061050 0.061050 0.051282 0.056166 0.051282 0.056166 0.051282 0.065934 0.061050 0.065934 0.056166 0.065934 0.061050 0.065934 0.070818 0.075702 0.065934 0.070818 0.065934 0.070818 0.070818 0.070818 0.075702 0.075702 0.070818 0.065934 0.070818 0.065934 0.065934 0.056166 0.061050 0.061050 0.065934 0.061050 0.056166 0.061050 0.061050 0.061050 0.070818 0.065934 0.075702 0.075702 0.075702 0.070818 0.070818 0.075702 0.075702 0.070818 0.070818 0.070818 0.070818 0.070818 0.070818 0.065934 0.070818 0.056166 0.065934 0.061050 0.061050 0.056166 0.056166 0.061050 0.056166 0.056166 0.056166 0.056166 0.065934 0.061050 0.065934 0.061050 0.056166 0.056166 0.056166 0.056166 0.056166 0.046398 0.051282 0.051282 0.051282 0.051282 0.056166 0.061050 0.046398 0.056166 0.056166 0.056166 0.061050 0.051282 0.051282 0.056166 0.056166 0.061050 0.065934 0.061050 0.065934 0.065934 0.061050 0.061050 0.051282 0.056166 0.056166 0.070818 0.065934 0.065934 0.065934 0.070818 0.075702 0.065934 0.056166 0.065934 0.061050 0.070818 0.061050 0.070818 0.065934 0.070818 0.070818 0.070818 0.070818 0.075702 0.070818 0.065934 0.070818 0.065934 0.065934 0.061050 0.056166 0.051282 0.056166 0.065934 0.056166 0.065934 0.051282 0.056166 0.056166 0.056166 0.056166 0.065934 0.070818 0.065934 0.061050 0.065934 0.070818 0.065934 0.065934 0.061050 0.065934 0.061050 0.061050 0.056166 0.061050 0.061050 0.061050 0.065934 0.061050 0.061050 0.051282 0.056166 0.046398 0.056166 0.051282 0.056166 0.051282 0.056166 0.051282 0.051282 0.051282 0.051282 0.051282 0.046398 0.051282 0.046398 0.046398 0.051282 0.051282 0.046398 0.046398 0.056166 0.056166 0.051282 0.046398 0.041514 0.036630 0.041514 0.041514 0.036630 0.041514 0.046398 0.051282 0.056166 0.065934 0.061050 0.061050 0.065934 0.070818 0.065934 0.061050 0.070818 0.065934 0.065934 0.061050 0.065934 0.061050 0.070818 0.070818 0.065934 0.065934 0.065934 0.065934 0.070818 0.070818 0.061050 0.061050 0.061050 0.056166 0.065934 0.056166 0.065934 0.061050 0.065934 0.070818 0.070818 0.070818 0.075702 0.075702 0.075702 0.080586 0.080586 0.080586 0.080586 0.085470 0.075702 0.075702 0.075702 0.080586 0.080586 0.080586 0.080586 0.080586 0.080586 0.070818 0.070818 0.070818 0.070818 0.070818 0.075702 0.070818 0.061050 0.065934 0.061050 0.065934 0.065934 0.065934 0.061050 0.061050 0.065934 0.065934 0.061050 0.070818 0.065934 0.065934 0.065934 0.061050 0.065934 0.070818 0.065934 0.065934 0.065934 0.056166 0.056166 0.056166 0.070818 0.061050 0.065934 0.070818 0.070818 0.070818 0.080586 0.075702 0.075702 0.075702 0.075702 0.080586 0.085470 0.085470 0.090354 0.085470 0.080586 0.085470 0.085470 0.075702 0.080586 0.070818 0.080586 0.085470 0.080586 0.085470 0.085470 0.080586 0.090354 0.085470 0.070818 0.075702 0.070818 0.075702 0.070818 0.061050 0.065934 0.061050 0.061050 0.065934 0.056166 0.065934 0.061050 0.061050 0.056166 0.065934 0.056166 0.061050 0.056166 0.056166 0.051282 0.056166 0.051282 0.056166 0.061050 0.056166 0.056166 0.051282 0.051282 0.056166 0.056166 0.056166 0.051282 0.056166 0.056166 0.065934 0.065934 0.061050 0.061050 0.070818 0.065934 0.061050 0.061050 0.061050 0.061050 0.061050 0.065934 0.061050 0.056166 0.056166 0.056166 0.061050 0.061050 0.056166 0.061050 0.061050 0.061050 0.056166 0.065934 0.061050 0.056166 0.041514 0.051282 0.046398 0.046398 0.036630 0.051282 0.041514 0.041514 0.041514 0.046398 0.046398 0.051282 0.051282 0.051282 0.051282 0.056166 0.056166 0.061050 0.061050 0.070818 0.070818 0.065934 0.061050 0.056166 0.061050 0.061050 0.056166 0.065934 0.065934 0.070818 0.065934 0.065934 0.070818 0.065934 0.070818 0.061050 0.065934 0.065934 0.070818 0.061050 0.061050 0.056166 0.061050 0.056166 0.056166 0.056166 0.061050 0.056166 0.061050 0.061050 0.061050 0.065934 0.065934 0.065934 0.070818 0.065934 0.065934 0.056166 0.056166 0.051282 0.061050 0.061050 0.061050 0.065934 0.061050 0.070818 0.070818 0.075702 0.075702 0.075702 0.070818 0.070818 0.065934 0.070818 0.065934 0.080586 0.075702 0.075702 0.075702 0.080586 0.080586 0.075702 0.070818 0.085470 0.085470 0.080586 0.085470 0.075702 0.075702 0.080586 0.080586 0.085470 0.080586 0.070818 0.075702 0.070818 0.070818 0.056166 0.056166 0.056166 0.046398 0.041514 0.031746 0.026862 0.021978 0.012210 0.002442 -0.002442 -0.017094 -0.026862 -0.036630 -0.041514 -0.051282 -0.061050 -0.070818 -0.070818 -0.075702 -0.080586 -0.080586 -0.080586 -0.080586 -0.070818 -0.065934 -0.061050 -0.036630 -0.031746 -0.021978 -0.012210 0.007326 0.021978 0.026862 0.036630 0.041514 0.056166 0.061050 0.061050 0.061050 0.061050 0.061050 0.061050 0.070818 0.075702 0.075702 0.070818 0.056166 0.061050 0.070818 0.061050 0.065934 0.070818 0.070818 0.070818 0.075702 0.070818 0.065934 0.070818 0.065934 0.065934 0.061050 0.061050 0.061050 0.061050 0.070818 0.061050 0.065934 0.065934 0.070818 0.065934 0.070818 0.075702 0.080586 0.075702 0.075702 0.080586 0.070818 0.075702 0.075702 0.075702 0.075702 0.075702 0.070818 0.070818 0.065934 0.065934 0.061050 0.075702 0.070818 0.080586 0.070818 0.080586 0.075702 0.075702 0.075702 0.070818 0.070818 0.065934 0.065934 0.061050 0.061050 0.056166 0.065934 0.061050 0.065934 0.061050 0.065934 0.065934 0.065934 0.061050 0.070818 0.070818 0.065934 0.065934 0.065934 0.056166 0.056166 0.056166 0.056166 0.056166 0.056166 0.051282 0.051282 0.056166 0.046398 0.051282 0.051282 0.051282 0.046398 0.046398 0.051282 0.056166 0.056166 0.051282 0.061050 0.056166 0.051282 0.051282 0.041514 0.041514 0.031746 0.031746 0.026862 0.031746 0.036630 0.041514 0.036630 0.036630 0.041514 0.041514 0.051282 0.051282 0.046398 0.051282 0.046398 0.046398 0.046398 0.041514 0.041514 0.051282 0.036630 0.041514 0.031746 0.041514 0.041514 0.051282 0.041514 0.041514 0.041514 0.046398 0.046398 0.046398 0.046398 0.046398 0.046398 0.046398 0.056166 0.051282 0.056166 0.056166 0.051282 0.051282 0.046398 0.056166 0.051282 0.056166 0.046398 0.051282 0.046398 0.041514 0.046398 0.046398 0.051282 0.056166 0.046398 0.051282 0.046398 0.041514 0.046398 0.041514 0.046398 0.046398 0.046398 0.046398 0.051282 0.056166 0.056166 0.056166 0.056166 0.056166 0.046398 0.046398 0.046398 0.046398 0.046398 0.046398 0.041514 0.041514 0.041514 0.046398 0.046398 0.046398 0.036630 0.031746 0.036630 0.041514 0.046398 0.046398 0.041514 0.041514 0.041514 0.046398 0.036630 0.036630 0.036630 0.041514 0.041514 0.041514 0.031746 0.036630 0.026862 0.036630 0.041514 0.036630 0.036630 0.031746 0.036630 0.036630 0.041514 0.036630 0.026862 0.026862 0.031746 0.031746 0.031746 0.021978 0.021978 0.026862 0.021978 0.017094 0.012210 0.007326 0.007326 0.012210 0.012210 0.012210 0.012210 0.012210 0.017094 0.012210 0.012210 0.012210 0.007326 0.007326 0.007326 0.007326 0.002442 0.012210 0.017094 0.021978 0.017094 0.021978 0.026862 0.026862 0.026862 0.026862 0.031746 0.031746 0.041514 0.036630 0.036630 0.046398 0.046398 0.046398 0.046398 0.046398 0.046398 0.046398 0.056166 0.051282 0.046398 0.041514 0.046398 0.046398 0.046398 0.041514 0.056166 0.046398 0.051282 0.051282 0.041514 0.041514 0.046398 0.041514 0.046398 0.046398 0.051282 0.046398 0.041514 0.036630 0.036630 0.031746 0.031746 0.021978 0.026862 0.026862 0.036630 0.041514 0.036630 0.026862 0.031746 0.026862 0.026862 0.021978 0.026862 0.031746 0.026862 0.026862 0.026862 0.021978 0.026862 0.021978 0.026862 0.026862 0.036630 0.026862 0.031746 0.031746 0.031746 0.031746 0.026862 0.036630 0.041514 0.041514 0.036630 0.031746 0.031746 0.031746 0.026862 0.026862 0.026862 0.026862 0.026862 0.031746 0.026862 0.026862 0.026862 0.026862 0.026862 0.026862 0.026862 0.021978 0.026862 0.021978 0.012210 0.017094 0.017094 0.007326 0.012210 0.012210 0.007326 0.007326 0.007326 0.007326 -0.002442 0.002442 -0.002442 -0.002442 -0.007326 -0.007326 -0.007326 -0.002442 0.002442 0.002442 -0.002442 0.002442 -0.002442 -0.002442 0.002442 0.002442 -0.002442 -0.002442 -0.002442 -0.007326 -0.002442 -0.002442 -0.002442 -0.002442 0.002442 0.002442 0.002442 0.002442 -0.002442 0.002442 0.002442 -0.002442 0.002442 -0.002442 -0.007326 -0.007326 -0.002442 -0.002442 0.002442 -0.002442 -0.002442 -0.002442 -0.002442 -0.002442 -0.007326 -0.002442 -0.002442 0.007326 0.002442 -0.002442 -0.002442 0.007326 -0.002442 0.002442 0.002442 -0.002442 -0.002442 -0.007326 -0.002442 -0.002442 -0.002442 -0.002442 -0.002442 -0.007326 -0.012210 -0.012210 -0.007326 -0.007326 -0.007326 -0.002442 -0.002442 -0.002442 -0.002442 -0.002442 -0.002442 -0.007326 -0.007326 -0.007326 -0.002442 -0.002442 -0.007326 -0.012210 -0.012210 -0.007326 -0.007326 -0.007326 0.002442 -0.002442 -0.002442 -0.002442 -0.007326 -0.012210 -0.007326 -0.007326 -0.002442 -0.002442 -0.002442 0.002442 -0.002442 -0.002442 -0.007326 -0.012210 -0.012210 -0.012210 -0.012210 0.002442 -0.002442 0.002442 -0.002442 -0.017094 -0.012210 -0.017094 -0.012210 -0.012210 -0.007326 -0.012210 -0.012210 -0.012210 -0.017094 -0.017094 -0.012210 -0.017094 -0.012210 -0.012210 -0.007326 -0.007326 -0.002442 -0.007326 -0.002442 0.002442 -0.002442 -0.002442 -0.012210 -0.007326 -0.007326 -0.002442 -0.012210 -0.007326 -0.012210 -0.007326 -0.012210 -0.007326 -0.012210 -0.007326 -0.002442 -0.012210 -0.007326 -0.012210 0.002442 -0.002442 0.002442 -0.007326 -0.002442 -0.002442 0.002442 0.002442 0.007326 0.007326 0.007326 0.012210 0.007326 0.007326 0.007326 0.007326 0.007326 0.012210 0.012210 0.007326 0.007326 0.007326 0.007326 0.007326 0.017094 0.007326 0.007326 0.012210 0.017094 0.017094 0.012210 0.007326 0.007326 0.007326 0.002442 0.002442 -0.002442 -0.002442 -0.007326 -0.002442 -0.007326 -0.002442 -0.007326 -0.007326 -0.002442 -0.002442 -0.002442 0.002442 0.002442 0.002442 -0.002442 -0.002442 -0.002442 0.002442 0.007326 0.012210 0.002442 0.002442 0.002442 0.002442 0.002442 -0.002442 -0.002442 -0.007326 -0.007326 0.002442 0.007326 0.007326 0.002442 0.007326 0.007326 0.012210 0.017094 0.012210 0.021978 0.017094 0.017094 0.021978 0.021978 0.017094 0.017094 0.021978 0.017094 0.017094 0.017094 0.012210 0.017094 0.017094 0.012210 0.012210 0.007326 0.007326 -0.002442 -0.007326 -0.007326 -0.002442 -0.002442 0.007326 0.012210 0.007326 0.002442 0.002442 -0.002442 0.002442 0.002442 0.007326 0.002442 -0.002442 0.012210 0.007326 0.002442 0.002442 0.012210 0.007326 0.007326 0.007326 0.012210 0.007326 0.007326 0.012210 0.007326 0.007326 0.012210 0.021978 0.021978 0.007326 0.012210 0.007326 0.002442 0.002442 0.007326 0.002442 0.002442 0.002442 0.002442 -0.002442 -0.002442 -0.002442 -0.002442 -0.002442 0.007326 0.012210 0.012210 0.012210 0.012210 0.017094 0.021978 0.017094 0.021978 0.021978 0.021978 0.021978 0.026862 0.017094 0.017094 0.026862 0.017094 0.026862 0.017094 0.031746 0.031746 0.021978 0.026862 0.026862 0.021978 0.021978 0.021978 0.021978 0.012210 0.021978 0.021978 0.026862 0.026862 0.026862 0.026862 0.021978 0.026862 0.041514 0.036630 0.031746 0.031746 0.036630 0.041514 0.046398 0.051282 0.046398 0.041514 0.046398 0.041514 0.041514 0.036630 0.036630 0.041514 0.036630 0.036630 0.036630 0.046398 0.051282 0.051282 0.051282 0.056166 0.065934 0.051282 0.056166 0.056166 0.056166 0.051282 0.051282 0.051282 0.051282 0.051282 0.051282 0.061050 0.051282 0.051282 0.061050 0.056166 0.061050 0.070818 0.056166 0.056166 0.056166 0.056166 0.051282 0.051282 0.056166 0.056166 0.056166 0.061050 0.061050 0.065934 0.061050 0.056166 0.070818 0.061050 0.065934 0.061050 0.056166 0.070818 0.070818 0.065934 0.070818 0.061050 0.065934 0.070818 0.061050 0.065934 0.065934 0.065934 0.070818 0.070818 0.065934 0.061050 0.065934 0.061050 0.065934 0.061050 0.056166 0.056166 0.056166 0.056166 0.051282 0.046398 0.051282 0.046398 0.051282 0.056166 0.061050 0.070818 0.065934 0.075702 0.070818 0.065934 0.070818 0.070818 0.070818 0.075702 0.075702 0.075702 0.080586 0.080586 0.080586 0.080586 0.075702 0.085470 0.090354 0.090354 0.090354 0.085470 0.080586 0.085470 0.080586 0.080586 0.075702 0.075702 0.070818 0.065934 0.061050 0.061050 0.056166 0.046398 0.031746 0.026862 0.021978 0.007326 -0.007326 -0.017094 -0.021978 -0.031746 -0.041514 -0.036630 -0.041514 -0.046398 -0.051282 -0.065934 -0.070818 -0.070818 -0.070818 -0.065934 -0.065934 -0.046398 -0.041514 -0.031746 -0.021978 -0.002442 0.007326 0.026862 0.031746 0.036630 0.041514 0.061050 0.065934 0.075702 0.085470 0.080586 0.090354 0.085470 0.090354 0.090354 0.085470 0.085470 0.085470 0.080586 0.080586 0.080586 0.085470 0.080586 0.080586 0.085470 0.080586 0.080586 0.090354 0.090354 0.085470 0.085470 0.090354 0.080586 0.085470 0.090354 0.085470 0.085470 0.075702 0.085470 0.085470 0.085470 0.080586 0.090354 0.095238 0.095238 0.090354 0.105006 0.100122 0.100122 0.095238 0.100122 0.095238 0.095238 0.095238 0.095238 0.100122 0.100122 0.100122 0.109890 0.109890 0.114774 0.109890 0.119658 0.109890 0.105006 0.100122 0.109890 0.109890 0.105006 0.105006 0.100122 0.100122 0.100122 0.105006 0.100122 0.100122 0.095238 0.090354 0.090354 0.090354 0.090354 0.095238 0.095238 0.105006 0.095238 0.105006 0.105006 0.095238 0.105006 0.100122 0.090354 0.100122 0.090354 0.095238 0.100122 0.095238 0.095238 0.095238 0.100122 0.100122 0.100122 0.100122 0.100122 0.095238 0.100122 0.090354 0.090354 0.090354 0.090354 0.085470 0.085470 0.080586 0.085470 0.085470 0.090354 0.090354 0.085470 0.090354 0.085470 0.085470 0.090354 0.095238 0.095238 0.100122 0.095238 0.095238 0.105006 0.105006 0.100122 0.090354 0.090354 0.095238 0.090354 0.095238 0.095238 0.095238 0.105006 0.100122 0.095238 0.105006 0.100122 0.100122 0.109890 0.095238 0.095238 0.085470 0.095238 0.090354 0.085470 0.085470 0.090354 0.085470 0.080586 0.085470 0.085470 0.085470 0.090354 0.085470 0.080586 0.080586 0.080586 0.085470 0.080586 0.085470 0.080586 0.080586 0.075702 0.080586 0.080586 0.085470 0.080586 0.075702 0.075702 0.080586 0.085470 0.090354 0.080586 0.085470 0.090354 0.090354 0.095238 0.085470 0.075702 0.085470 0.080586 0.075702 0.070818 0.065934 0.065934 0.065934 0.056166 0.061050 0.070818 0.070818 0.065934 0.065934 0.065934 0.061050 0.061050 0.061050 0.061050 0.056166 0.061050 0.061050 0.061050 0.056166 0.061050 0.061050 0.061050 0.061050 0.051282 0.056166 0.056166 0.056166 0.061050 0.056166 0.056166 0.061050 0.056166 0.065934 0.061050 0.065934 0.065934 0.065934 0.065934 0.065934 0.065934 0.065934 0.070818 0.065934 0.065934 0.070818 0.065934 0.061050 0.070818 0.065934 0.080586 0.075702 0.080586 0.075702 0.070818 0.070818 0.070818 0.070818 0.065934 0.070818 0.070818 0.065934 0.065934 0.061050 0.061050 0.070818 0.070818 0.075702 0.070818 0.075702 0.070818 0.065934 0.075702 0.070818 0.075702 0.075702 0.070818 0.075702 0.085470 0.080586 0.075702 0.075702 0.075702 0.075702 0.075702 0.085470 0.070818 0.075702 0.075702 0.075702 0.070818 0.070818 0.061050 0.065934 0.061050 0.065934 0.070818 0.065934 0.061050 0.070818 0.065934 0.065934 0.075702 0.075702 0.075702 0.075702 0.085470 0.085470 0.085470 0.090354 0.085470 0.080586 0.090354 0.090354 0.095238 0.095238 0.095238 0.090354 0.085470 0.085470 0.090354 0.090354 0.085470 0.090354 0.095238 0.085470 0.085470 0.095238 0.090354 0.095238 0.090354 0.095238 0.095238 0.100122 0.105006 0.095238 0.100122 0.105006 0.105006 0.109890 0.105006 0.100122 0.100122 0.105006 0.105006 0.105006 0.100122 0.100122 0.100122 0.095238 0.095238 0.095238 0.100122 0.095238 0.095238 0.100122 0.095238 0.100122 0.095238 0.105006 0.109890 0.105006 0.095238 0.100122 0.100122 0.100122 0.114774 0.119658 0.105006 0.105006 0.105006 0.095238 0.095238 0.090354 0.090354 0.090354 0.095238 0.085470 0.090354 0.095238 0.090354 0.090354 0.080586 0.090354 0.085470 0.080586 0.090354 0.090354 0.090354 0.095238 0.095238 0.090354 0.090354 0.090354 0.090354 0.090354 0.090354 0.085470 0.085470 0.080586 0.070818 0.070818 0.075702 0.080586 0.085470 0.080586 0.080586 0.080586 0.080586 0.080586 0.080586 0.085470 0.085470 0.095238 0.085470 0.085470 0.080586 0.080586 0.085470 0.090354 0.090354 0.090354 0.090354 0.090354 0.085470 0.085470 0.085470 0.075702 0.075702 0.075702 0.075702 0.070818 0.065934 0.070818 0.075702 0.070818 0.080586 0.075702 0.075702 0.080586 0.075702 0.075702 0.080586 0.085470 0.090354 0.090354 0.085470 0.085470 0.095238 0.080586 0.080586 0.085470 0.090354 0.095238 0.095238 0.105006 0.105006 0.105006 0.109890 0.100122 0.100122 0.100122 0.105006 0.105006 0.105006 0.105006 0.105006 0.105006 0.109890 0.105006 0.114774 0.109890 0.105006 0.100122 0.100122 0.100122 0.105006 0.100122 0.105006 0.105006 0.114774 0.105006 0.109890 0.109890 0.095238 0.105006 0.100122 0.100122 0.100122 0.100122 0.105006 0.105006 0.105006 0.109890 0.105006 0.105006 0.105006 0.109890 0.109890 0.105006 0.109890 0.105006 0.100122 0.105006 0.105006 0.095238 0.100122 0.095238 0.100122 0.105006 0.109890 0.105006 0.100122 0.090354 0.095238 0.100122 0.095238 0.095238 0.095238 0.095238 0.090354 0.100122 0.100122 0.100122 0.100122 0.095238 0.090354 0.095238 0.090354 0.095238 0.090354 0.100122 0.100122 0.109890 0.105006 0.100122 0.100122 0.109890 0.100122 0.105006 0.105006 0.105006 0.100122 0.100122 0.090354 0.100122 0.100122 0.095238 0.095238 0.085470 0.090354 0.090354 0.095238 0.090354 0.085470 0.085470 0.090354 0.090354 0.095238 0.080586 0.075702 0.085470 0.090354 0.095238 0.095238 0.095238 0.100122 0.100122 0.100122 0.105006 0.105006 0.109890 0.105006 0.100122 0.100122 0.100122 0.100122 0.090354 0.085470 0.080586 0.095238 0.090354 0.095238 0.085470 0.085470 0.080586 0.085470 0.080586 0.090354 0.080586 0.090354 0.080586 0.080586 0.080586 0.080586 0.090354 0.085470 0.075702 0.075702 0.080586 0.085470 0.085470 0.075702 0.080586 0.080586 0.090354 0.080586 0.085470 0.085470 0.080586 0.080586 0.085470 0.085470 0.085470 0.080586 0.090354 0.085470 0.085470 0.085470 0.080586 0.080586 0.085470 0.080586 0.080586 0.080586 0.085470 0.085470 0.080586 0.085470 0.080586 0.085470 0.085470 0.090354 0.090354 0.085470 0.090354 0.085470 0.090354 0.090354 0.085470 0.085470 0.090354 0.090354 0.095238 0.090354 0.090354 0.095238 0.085470 0.090354 0.090354 0.085470 0.090354 0.090354 0.095238 0.095238 0.100122 0.100122 0.100122 0.109890 0.109890 0.105006 0.105006 0.109890 0.105006 0.109890 0.105006 0.105006 0.105006 0.114774 0.109890 0.095238 0.100122 0.100122 0.100122 0.109890 0.100122 0.109890 0.105006 0.105006 0.100122 0.109890 0.100122 0.109890 0.095238 0.105006 0.100122 0.095238 0.080586 0.085470 0.080586 0.080586 0.085470 0.100122 0.090354 0.090354 0.090354 0.085470 0.095238 0.095238 0.090354 0.100122 0.109890 0.105006 0.109890 0.105006 0.105006 0.100122 0.100122 0.105006 0.109890 0.105006 0.109890 0.109890 0.109890 0.119658 0.129426 0.124542 0.124542 0.124542 0.124542 0.124542 0.129426 0.129426 0.119658 0.124542 0.129426 0.124542 0.124542 0.119658 0.124542 0.119658 0.119658 0.114774 0.114774 0.114774 0.109890 0.119658 0.124542 0.124542 0.119658 0.119658 0.124542 0.124542 0.134310 0.134310 0.134310 0.134310 0.139194 0.139194 0.139194 0.139194 0.134310 0.134310 0.134310 0.134310 0.129426 0.129426 0.139194 0.129426 0.134310 0.139194 0.139194 0.134310 0.129426 0.134310 0.134310 0.134310 0.139194 0.134310 0.134310 0.134310 0.124542 0.124542 0.129426 0.124542 0.119658 0.124542 0.119658 0.129426 0.124542 0.119658 0.124542 0.124542 0.124542 0.129426 0.134310 0.129426 0.129426 0.134310 0.134310 0.134310 0.134310 0.139194 0.134310 0.134310 0.129426 0.134310 0.119658 0.114774 0.105006 0.105006 0.100122 0.090354 0.085470 0.075702 0.061050 0.046398 0.046398 0.031746 0.026862 0.012210 0.002442 0.002442 -0.002442 -0.002442 -0.012210 -0.012210 -0.007326 -0.007326 -0.012210 -0.007326 0.002442 0.012210 0.026862 0.031746 0.041514 0.061050 0.061050 0.075702 0.080586 0.090354 0.095238 0.100122 0.109890 0.119658 0.124542 0.129426 0.129426 0.134310 0.124542 0.119658 0.129426 0.134310 0.124542 0.129426 0.124542 0.124542 0.124542 0.124542 0.124542 0.119658 0.119658 0.114774 0.124542 0.119658 0.114774 0.119658 0.119658 0.114774 0.119658 0.124542 0.124542 0.129426 0.124542 0.124542 0.124542 0.124542 0.124542 0.129426 0.129426 0.124542 0.129426 0.129426 0.129426 0.129426 0.129426 0.129426 0.129426 0.134310 0.134310 0.134310 0.139194 0.139194 0.139194 0.144078 0.144078 0.148962 0.144078 0.144078 0.139194 0.144078 0.148962 0.139194 0.153846 0.153846 0.153846 0.158730 0.158730 0.158730 0.158730 0.158730 0.163614 0.163614 0.153846 0.153846 0.153846 0.158730 0.144078 0.148962 0.144078 0.148962 0.148962 0.144078 0.148962 0.148962 0.148962 0.158730 0.158730 0.153846 0.153846 0.153846 0.144078 0.144078 0.144078 0.144078 0.144078 0.139194 0.129426 0.129426 0.129426 0.134310 0.134310 0.134310 0.139194 0.144078 0.144078 0.139194 0.139194 0.139194 0.124542 0.129426 0.129426 0.134310 0.129426 0.139194 0.134310 0.129426 0.129426 0.134310 0.129426 0.129426 0.124542 0.134310 0.134310 0.129426 0.129426 0.134310 0.134310 0.124542 0.129426 0.129426 0.139194 0.139194 0.139194 0.139194 0.139194 0.139194 0.144078 0.139194 0.144078 0.144078 0.144078 0.144078 0.144078 0.144078 0.139194 0.139194 0.144078 0.139194 0.139194 0.139194 0.144078 0.144078 0.144078 0.144078 0.148962 0.144078 0.148962 0.148962 0.144078 0.148962 0.144078 0.139194 0.148962 0.144078 0.139194 0.139194 0.139194 0.144078 0.139194 0.134310 0.134310 0.134310 0.139194 0.144078 0.134310 0.134310 0.129426 0.134310 0.124542 0.129426 0.124542 0.119658 0.124542 0.119658 0.119658 0.124542 0.119658 0.119658 0.114774 0.119658 0.124542 0.119658 0.124542 0.124542 0.119658 0.134310 0.124542 0.129426 0.134310 0.134310 0.134310 0.139194 0.134310 0.129426 0.134310 0.134310 0.134310 0.129426 0.134310 0.129426 0.119658 0.119658 0.129426 0.129426 0.124542 0.129426 0.124542 0.134310 0.134310 0.124542 0.124542 0.129426 0.129426 0.129426 0.129426 0.134310 0.134310 0.139194 0.134310 0.144078 0.139194 0.139194 0.129426 0.134310 0.129426 0.124542 0.124542 0.119658 0.119658 0.114774 0.119658 0.119658 0.124542 0.124542 0.124542 0.124542 0.129426 0.129426 0.129426 0.129426 0.124542 0.129426 0.129426 0.129426 0.129426 0.134310 0.144078 0.134310 0.134310 0.139194 0.134310 0.134310 0.134310 0.139194 0.134310 0.129426 0.134310 0.134310 0.129426 0.139194 0.148962 0.148962 0.144078 0.144078 0.139194 0.139194 0.144078 0.144078 0.144078 0.139194 0.158730 0.158730 0.153846 0.158730 0.153846 0.168498 0.158730 0.148962 0.153846 0.158730 0.163614 0.168498 0.168498 0.163614 0.158730 0.158730 0.153846 0.158730 0.158730 0.163614 0.163614 0.158730 0.153846 0.158730 0.153846 0.153846 0.148962 0.153846 0.148962 0.144078 0.144078 0.148962 0.158730 0.163614 0.158730 0.168498 0.168498 0.173382 0.173382 0.173382 0.173382 0.178266 0.178266 0.178266 0.178266 0.173382 0.168498 0.168498 0.163614 0.163614 0.158730 0.153846 0.148962 0.148962 0.158730 0.158730 0.158730 0.158730 0.163614 0.158730 0.163614 0.168498 0.173382 0.168498 0.168498 0.178266 0.168498 0.168498 0.173382 0.168498 0.178266 0.178266 0.183150 0.183150 0.173382 0.178266 0.178266 0.178266 0.173382 0.173382 0.173382 0.173382 0.168498 0.173382 0.173382 0.173382 0.173382 0.178266 0.178266 0.178266 0.173382 0.173382 0.178266 0.173382 0.178266 0.173382 0.168498 0.178266 0.168498 0.178266 0.173382 0.188034 0.183150 0.188034 0.183150 0.188034 0.192918 0.192918 0.192918 0.192918 0.188034 0.183150 0.183150 0.183150 0.183150 0.183150 0.178266 0.173382 0.178266 0.168498 0.163614 0.158730 0.163614 0.163614 0.168498 0.158730 0.168498 0.163614 0.173382 0.173382 0.183150 0.183150 0.183150 0.178266 0.183150 0.168498 0.178266 0.178266 0.183150 0.178266 0.178266 0.173382 0.178266 0.178266 0.178266 0.183150 0.178266 0.163614 0.163614 0.158730 0.163614 0.163614 0.163614 0.158730 0.158730 0.163614 0.153846 0.163614 0.163614 0.163614 0.163614 0.163614 0.158730 0.163614 0.158730 0.163614 0.158730 0.163614 0.153846 0.158730 0.158730 0.158730 0.158730 0.163614 0.158730 0.163614 0.163614 0.168498 0.168498 0.168498 0.178266 0.168498 0.158730 0.168498 0.163614 0.168498 0.163614 0.168498 0.153846 0.158730 0.153846 0.148962 0.139194 0.144078 0.148962 0.148962 0.158730 0.153846 0.153846 0.158730 0.158730 0.163614 0.158730 0.153846 0.158730 0.158730 0.163614 0.158730 0.163614 0.158730 0.158730 0.158730 0.163614 0.163614 0.168498 0.158730 0.163614 0.163614 0.168498 0.158730 0.158730 0.158730 0.158730 0.158730 0.163614 0.163614 0.153846 0.158730 0.163614 0.158730 0.158730 0.158730 0.163614 0.168498 0.168498 0.163614 0.168498 0.173382 0.163614 0.163614 0.158730 0.163614 0.158730 0.158730 0.158730 0.158730 0.153846 0.158730 0.153846 0.163614 0.158730 0.158730 0.163614 0.163614 0.153846 0.163614 0.148962 0.163614 0.168498 0.168498 0.168498 0.163614 0.163614 0.163614 0.158730 0.163614 0.168498 0.173382 0.163614 0.153846 0.168498 0.163614 0.168498 0.158730 0.158730 0.158730 0.163614 0.158730 0.158730 0.168498 0.168498 0.168498 0.168498 0.173382 0.163614 0.168498 0.168498 0.163614 0.178266 0.183150 0.188034 0.188034 0.188034 0.188034 0.188034 0.192918 0.192918 0.192918 0.197802 0.192918 0.188034 0.188034 0.183150 0.183150 0.202686 0.192918 0.197802 0.197802 0.202686 0.197802 0.202686 0.197802 0.197802 0.192918 0.188034 0.188034 0.192918 0.192918 0.192918 0.202686 0.197802 0.197802 0.202686 0.207570 0.202686 0.207570 0.207570 0.207570 0.217338 0.212454 0.207570 0.207570 0.197802 0.197802 0.192918 0.197802 0.192918 0.197802 0.202686 0.197802 0.202686 0.212454 0.202686 0.207570 0.202686 0.217338 0.212454 0.212454 0.212454 0.212454 0.202686 0.207570 0.202686 0.202686 0.197802 0.207570 0.202686 0.202686 0.207570 0.212454 0.202686 0.212454 0.207570 0.202686 0.202686 0.202686 0.202686 0.212454 0.202686 0.202686 0.207570 0.207570 0.207570 0.207570 0.212454 0.207570 0.197802 0.197802 0.202686 0.202686 0.212454 0.207570 0.202686 0.202686 0.207570 0.202686 0.207570 0.212454 0.227106 0.222222 0.227106 0.222222 0.231990 0.231990 0.227106 0.227106 0.227106 0.227106 0.222222 0.231990 0.227106 0.222222 0.222222 0.217338 0.222222 0.227106 0.222222 0.227106 0.217338 0.222222 0.227106 0.227106 0.227106 0.227106 0.227106 0.231990 0.222222 0.222222 0.222222 0.236874 0.236874 0.241758 0.241758 0.236874 0.236874 0.236874 0.241758 0.236874 0.231990 0.231990 0.222222 0.227106 0.217338 0.227106 0.231990 0.227106 0.231990 0.231990 0.231990 0.217338 0.222222 0.227106 0.217338 0.217338 0.212454 0.212454 0.212454 0.212454 0.207570 0.212454 0.212454 0.212454 0.222222 0.217338 0.222222 0.222222 0.217338 0.212454 0.227106 0.222222 0.222222 0.231990 0.222222 0.222222 0.222222 0.222222 0.222222 0.217338 0.217338 0.222222 0.222222 0.212454 0.212454 0.207570 0.202686 0.197802 0.192918 0.188034 0.178266 0.158730 0.163614 0.148962 0.134310 0.129426 0.109890 0.090354 0.085470 0.080586 0.075702 0.065934 0.070818 0.070818 0.070818 0.075702 0.075702 0.080586 0.095238 0.105006 0.109890 0.119658 0.134310 0.139194 0.148962 0.163614 0.173382 0.188034 0.192918 0.188034 0.202686 0.207570 0.207570 0.212454 0.217338 0.207570 0.202686 0.202686 0.202686 0.207570 0.197802 0.202686 0.197802 0.207570 0.202686 0.202686 0.207570 0.207570 0.207570 0.197802 0.207570 0.202686 0.192918 0.197802 0.197802 0.207570 0.202686 0.197802 0.197802 0.197802 0.202686 0.202686 0.207570 0.207570 0.202686 0.212454 0.207570 0.217338 0.217338 0.202686 0.212454 0.207570 0.202686 0.197802 0.197802 0.197802 0.202686 0.197802 0.202686 0.197802 0.207570 0.197802 0.207570 0.202686 0.197802 0.202686 0.207570 0.202686 0.207570 0.207570 0.207570 0.202686 0.202686 0.188034 0.188034 0.192918 0.197802 0.197802 0.197802 0.202686 0.192918 0.202686 0.207570 0.202686 0.202686 0.207570 0.197802 0.197802 0.188034 0.192918 0.197802 0.197802 0.197802 0.188034 0.192918 0.188034 0.188034 0.183150 0.183150 0.188034 0.183150 0.173382 0.178266 0.173382 0.188034 0.188034 0.178266 0.183150 0.178266 0.188034 0.183150 0.188034 0.178266 0.188034 0.183150 0.178266 0.178266 0.183150 0.188034 0.183150 0.183150 0.192918 0.183150 0.178266 0.178266 0.188034 0.183150 0.178266 0.178266 0.178266 0.173382 0.163614 0.163614 0.163614 0.168498 0.178266 0.173382 0.168498 0.178266 0.173382 0.163614 0.163614 0.163614 0.158730 0.168498 0.158730 0.173382 0.168498 0.163614 0.163614 0.168498 0.168498 0.163614 0.168498 0.168498 0.163614 0.168498 0.158730 0.168498 0.178266 0.173382 0.168498 0.168498 0.168498 0.168498 0.158730 0.168498 0.168498 0.173382 0.168498 0.168498 0.168498 0.173382 0.173382 0.173382 0.173382 0.163614 0.158730 0.158730 0.163614 0.153846 0.153846 0.153846 0.153846 0.153846 0.153846 0.153846 0.153846 0.148962 0.148962 0.144078 0.148962 0.148962 0.158730 0.158730 0.168498 0.168498 0.163614 0.163614 0.163614 0.163614 0.163614 0.168498 0.163614 0.153846 0.153846 0.148962 0.148962 0.148962 0.144078 0.144078 0.139194 0.144078 0.139194 0.144078 0.139194 0.148962 0.144078 0.153846 0.153846 0.163614 0.158730 0.148962 0.148962 0.153846 0.139194 0.134310 0.139194 0.139194 0.144078 0.144078 0.144078 0.148962 0.148962 0.153846 0.153846 0.158730 0.148962 0.148962 0.153846 0.148962 0.158730 0.148962 0.153846 0.153846 0.158730 0.153846 0.148962 0.148962 0.148962 0.148962 0.158730 0.153846 0.153846 0.153846 0.153846 0.148962 0.148962 0.148962 0.153846 0.148962 0.153846 0.153846 0.158730 0.163614 0.163614 0.173382 0.173382 0.163614 0.163614 0.163614 0.158730 0.153846 0.158730 0.163614 0.163614 0.168498 0.163614 0.168498 0.168498 0.178266 0.173382 0.173382 0.173382 0.178266 0.173382 0.173382 0.178266 0.173382 0.168498 0.168498 0.183150 0.178266 0.178266 0.178266 0.173382 0.178266 0.178266 0.173382 0.168498 0.173382 0.173382 0.173382 0.173382 0.178266 0.178266 0.178266 0.178266 0.178266 0.173382 0.178266 0.173382 0.183150 0.173382 0.173382 0.183150 0.188034 0.183150 0.183150 0.183150 0.183150 0.178266 0.183150 0.183150 0.178266 0.188034 0.192918 0.188034 0.197802 0.183150 0.188034 0.183150 0.183150 0.178266 0.183150 0.183150 0.178266 0.178266 0.183150 0.183150 0.178266 0.178266 0.168498 0.173382 0.173382 0.178266 0.178266 0.178266 0.178266 0.183150 0.178266 0.178266 0.178266 0.183150 0.168498 0.188034 0.183150 0.188034 0.188034 0.188034 0.178266 0.178266 0.183150 0.188034 0.173382 0.173382 0.173382 0.178266 0.173382 0.168498 0.168498 0.163614 0.163614 0.173382 0.178266 0.178266 0.188034 0.183150 0.178266 0.183150 0.188034 0.178266 0.183150 0.178266 0.183150 0.173382 0.178266 0.183150 0.188034 0.188034 0.188034 0.188034 0.192918 0.188034 0.188034 0.183150 0.178266 0.178266 0.183150 0.178266 0.183150 0.173382 0.168498 0.173382 0.173382 0.163614 0.173382 0.173382 0.173382 0.168498 0.173382 0.168498 0.168498 0.173382 0.178266 0.178266 0.178266 0.168498 0.168498 0.168498 0.168498 0.168498 0.168498 0.173382 0.173382 0.168498 0.173382 0.183150 0.168498 0.168498 0.173382 0.173382 0.173382 0.173382 0.173382 0.178266 0.168498 0.168498 0.168498 0.163614 0.163614 0.163614 0.173382 0.173382 0.183150 0.173382 0.168498 0.168498 0.173382 0.168498 0.173382 0.173382 0.183150 0.188034 0.188034 0.188034 0.188034 0.183150 0.183150 0.178266 0.178266 0.178266 0.178266 0.183150 0.183150 0.183150 0.178266 0.183150 0.178266 0.188034 0.178266 0.183150 0.188034 0.192918 0.188034 0.192918 0.192918 0.197802 0.178266 0.188034 0.188034 0.183150 0.178266 0.178266 0.188034 0.183150 0.178266 0.178266 0.183150 0.178266 0.183150 0.192918 0.192918 0.192918 0.188034 0.188034 0.178266 0.178266 0.173382 0.183150 0.173382 0.178266 0.178266 0.178266 0.183150 0.173382 0.178266 0.178266 0.178266 0.178266 0.173382 0.178266 0.173382 0.168498 0.163614 0.168498 0.168498 0.163614 0.163614 0.158730 0.173382 0.163614 0.163614 0.168498 0.173382 0.168498 0.178266 0.178266 0.168498 0.178266 0.163614 0.163614 0.163614 0.168498 0.163614 0.163614 0.168498 0.163614 0.168498 0.178266 0.183150 0.183150 0.173382 0.173382 0.168498 0.163614 0.173382 0.173382 0.173382 0.163614 0.168498 0.173382 0.168498 0.158730 0.158730 0.158730 0.158730 0.158730 0.158730 0.158730 0.163614 0.178266 0.163614 0.163614 0.163614 0.168498 0.168498 0.168498 0.173382 0.168498 0.163614 0.168498 0.168498 0.168498 0.158730 0.168498 0.163614 0.163614 0.168498 0.168498 0.178266 0.178266 0.183150 0.178266 0.178266 0.168498 0.168498 0.163614 0.168498 0.163614 0.168498 0.163614 0.163614 0.163614 0.163614 0.163614 0.163614 0.153846 0.148962 0.148962 0.144078 0.153846 0.158730 0.148962 0.153846 0.153846 0.148962 0.153846 0.158730 0.148962 0.144078 0.144078 0.144078 0.139194 0.144078 0.139194 0.119658 0.129426 0.134310 0.139194 0.134310 0.129426 0.129426 0.124542 0.124542 0.129426 0.124542 0.124542 0.124542 0.134310 0.124542 0.134310 0.129426 0.124542 0.124542 0.124542 0.124542 0.124542 0.124542 0.119658 0.119658 0.124542 0.119658 0.119658 0.114774 0.129426 0.124542 0.119658 0.134310 0.124542 0.124542 0.124542 0.124542 0.129426 0.134310 0.139194 0.139194 0.134310 0.139194 0.139194 0.139194 0.153846 0.144078 0.148962 0.148962 0.148962 0.148962 0.144078 0.144078 0.139194 0.139194 0.139194 0.144078 0.134310 0.134310 0.129426 0.134310 0.129426 0.129426 0.129426 0.129426 0.124542 0.119658 0.119658 0.119658 0.129426 0.124542 0.129426 0.129426 0.129426 0.129426 0.134310 0.129426 0.129426 0.134310 0.129426 0.134310 0.139194 0.139194 0.144078 0.144078 0.139194 0.144078 0.139194 0.139194 0.134310 0.139194 0.134310 0.134310 0.134310 0.134310 0.134310 0.144078 0.144078 0.153846 0.153846 0.144078 0.139194 0.144078 0.139194 0.134310 0.139194 0.139194 0.134310 0.144078 0.144078 0.148962 0.139194 0.148962 0.134310 0.139194 0.144078 0.134310 0.129426 0.134310 0.144078 0.139194 0.134310 0.124542 0.119658 0.114774 0.105006 0.095238 0.100122 0.090354 0.085470 0.080586 0.070818 0.065934 0.051282 0.041514 0.036630 0.026862 0.017094 0.002442 0.007326 0.002442 -0.002442 -0.007326 -0.007326 -0.012210 -0.012210 -0.017094 -0.021978 -0.012210 -0.007326 0.002442 0.017094 0.017094 0.026862 0.041514 0.061050 0.061050 0.070818 0.095238 0.100122 0.109890 0.124542 0.129426 0.119658 0.124542 0.129426 0.124542 0.124542 0.119658 0.129426 0.134310 0.134310 0.134310 0.134310 0.134310 0.129426 0.134310 0.144078 0.144078 0.148962 0.144078 0.148962 0.134310 0.139194 0.129426 0.134310 0.134310 0.139194 0.148962 0.139194 0.144078 0.139194 0.139194 0.129426 0.129426 0.129426 0.134310 0.124542 0.124542 0.129426 0.124542 0.129426 0.134310 0.134310 0.124542 0.124542 0.129426 0.129426 0.129426 0.129426 0.129426 0.119658 0.114774 0.114774 0.114774 0.114774 0.109890 0.114774 0.109890 0.109890 0.105006 0.109890 0.114774 0.105006 0.114774 0.105006 0.100122 0.109890 0.109890 0.114774 0.114774 0.109890 0.114774 0.105006 0.114774 0.119658 0.124542 0.119658 0.134310 0.124542 0.119658 0.124542 0.124542 0.124542 0.124542 0.119658 0.119658 0.109890 0.109890 0.114774 0.109890 0.114774 0.109890 0.105006 0.109890 0.114774 0.114774 0.114774 0.109890 0.119658 0.119658 0.119658 0.124542 0.129426 0.119658 0.124542 0.119658 0.124542 0.114774 0.109890 0.119658 0.114774 0.114774 0.109890 0.114774 0.105006 0.109890 0.100122 0.109890 0.109890 0.114774 0.119658 0.119658 0.119658 0.124542 0.129426 0.134310 0.134310 0.139194 0.124542 0.129426 0.134310 0.124542 0.129426 0.124542 0.114774 0.124542 0.114774 0.105006 0.109890 0.114774 0.109890 0.109890 0.109890 0.119658 0.119658 0.109890 0.114774 0.109890 0.119658 0.105006 0.105006 0.114774 0.105006 0.105006 0.109890 0.119658 0.114774 0.119658 0.114774 0.105006 0.109890 0.109890 0.114774 0.114774 0.109890 0.109890 0.114774 0.109890 0.114774 0.119658 0.124542 0.114774 0.119658 0.119658 0.114774 0.114774 0.114774 0.109890 0.105006 0.105006 0.100122 0.100122 0.100122 0.105006 0.105006 0.105006 0.100122 0.109890 0.114774 0.105006 0.105006 0.100122 0.100122 0.105006 0.105006 0.105006 0.109890 0.109890 0.105006 0.105006 0.105006 0.100122 0.105006 0.095238 0.095238 0.095238 0.090354 0.090354 0.085470 0.070818 0.070818 0.070818 0.075702 0.070818 0.070818 0.070818 0.075702 0.080586 0.085470 0.075702 0.080586 0.080586 0.085470 0.085470 0.085470 0.080586 0.075702 0.080586 0.080586 0.080586 0.085470 0.075702 0.085470 0.085470 0.085470 0.080586 0.075702 0.085470 0.080586 0.085470 0.080586 0.085470 0.090354 0.095238 0.095238 0.085470 0.090354 0.095238 0.090354 0.090354 0.090354 0.080586 0.080586 0.080586 0.080586 0.075702 0.085470 0.080586 0.075702 0.075702 0.075702 0.080586 0.090354 0.085470 0.090354 0.090354 0.095238 0.095238 0.090354 0.085470 0.090354 0.090354 0.095238 0.090354 0.095238 0.090354 0.095238 0.095238 0.095238 0.090354 0.100122 0.095238 0.100122 0.095238 0.100122 0.095238 0.100122 0.100122 0.095238 0.100122 0.095238 0.095238 0.105006 0.095238 0.100122 0.095238 0.100122 0.105006 0.105006 0.095238 0.095238 0.100122 0.105006 0.100122 0.114774 0.105006 0.105006 0.095238 0.109890 0.109890 0.114774 0.109890 0.100122 0.105006 0.100122 0.100122 0.105006 0.100122 0.100122 0.100122 0.105006 0.109890 0.100122 0.109890 0.100122 0.100122 0.095238 0.100122 0.100122 0.105006 0.114774 0.114774 0.114774 0.109890 0.119658 0.114774 0.119658 0.114774 0.119658 0.114774 0.119658 0.124542 0.119658 0.109890 0.119658 0.114774 0.109890 0.114774 0.105006 0.114774 0.114774 0.114774 0.109890 0.114774 0.105006 0.100122 0.100122 0.105006 0.105006 0.105006 0.100122 0.105006 0.109890 0.119658 0.119658 0.124542 0.119658 0.114774 0.114774 0.109890 0.119658 0.124542 0.119658 0.119658 0.114774 0.119658 0.119658 0.119658 0.119658 0.119658 0.119658 0.119658 0.124542 0.129426 0.124542 0.124542 0.119658 0.124542 0.124542 0.124542 0.124542 0.129426 0.129426 0.119658 0.124542 0.129426 0.129426 0.129426 0.129426 0.129426 0.124542 0.129426 0.109890 0.119658 0.124542 0.124542 0.129426 0.119658 0.119658 0.129426 0.129426 0.129426 0.134310 0.139194 0.129426 0.129426 0.139194 0.129426 0.134310 0.129426 0.124542 0.124542 0.124542 0.124542 0.124542 0.129426 0.124542 0.124542 0.119658 0.124542 0.129426 0.129426 0.129426 0.129426 0.129426 0.114774 0.119658 0.119658 0.114774 0.109890 0.114774 0.105006 0.119658 0.109890 0.114774 0.114774 0.119658 0.109890 0.114774 0.109890 0.114774 0.114774 0.114774 0.114774 0.114774 0.124542 0.124542 0.114774 0.119658 0.119658 0.114774 0.114774 0.124542 0.124542 0.124542 0.119658 0.119658 0.124542 0.124542 0.124542 0.119658 0.124542 0.124542 0.114774 0.124542 0.124542 0.129426 0.129426 0.129426 0.134310 0.134310 0.139194 0.139194 0.139194 0.139194 0.144078 0.144078 0.148962 0.144078 0.144078 0.148962 0.148962 0.148962 0.153846 0.148962 0.144078 0.139194 0.144078 0.144078 0.144078 0.148962 0.144078 0.144078 0.144078 0.153846 0.153846 0.158730 0.158730 0.153846 0.148962 0.148962 0.153846 0.153846 0.153846 0.163614 0.163614 0.163614 0.158730 0.163614 0.153846 0.148962 0.153846 0.148962 0.144078 0.148962 0.144078 0.144078 0.144078 0.139194 0.129426 0.139194 0.148962 0.139194 0.144078 0.148962 0.144078 0.144078 0.139194 0.144078 0.144078 0.153846 0.148962 0.158730 0.148962 0.158730 0.153846 0.153846 0.153846 0.153846 0.153846 0.148962 0.148962 0.148962 0.153846 0.158730 0.148962 0.153846 0.163614 0.158730 0.158730 0.153846 0.168498 0.163614 0.158730 0.158730 0.168498 0.163614 0.158730 0.158730 0.163614 0.163614 0.158730 0.148962 0.148962 0.148962 0.139194 0.139194 0.153846 0.148962 0.148962 0.148962 0.158730 0.158730 0.158730 0.153846 0.153846 0.148962 0.153846 0.148962 0.153846 0.144078 0.148962 0.148962 0.148962 0.148962 0.148962 0.153846 0.153846 0.139194 0.139194 0.134310 0.134310 0.134310 0.139194 0.139194 0.134310 0.134310 0.129426 0.134310 0.139194 0.139194 0.134310 0.134310 0.134310 0.134310 0.144078 0.134310 0.134310 0.139194 0.139194 0.144078 0.144078 0.144078 0.139194 0.134310 0.129426 0.134310 0.134310 0.139194 0.129426 0.134310 0.134310 0.134310 0.139194 0.134310 0.134310 0.139194 0.148962 0.144078 0.144078 0.139194 0.144078 0.139194 0.134310 0.144078 0.139194 0.134310 0.134310 0.134310 0.129426 0.139194 0.134310 0.144078 0.139194 0.144078 0.144078 0.139194 0.139194 0.134310 0.139194 0.139194 0.139194 0.139194 0.144078 0.139194 0.139194 0.134310 0.148962 0.144078 0.148962 0.148962 0.148962 0.148962 0.158730 0.148962 0.158730 0.153846 0.158730 0.153846 0.158730 0.168498 0.173382 0.168498 0.168498 0.168498 0.168498 0.173382 0.173382 0.173382 0.178266 0.178266 0.178266 0.173382 0.178266 0.173382 0.168498 0.178266 0.183150 0.183150 0.178266 0.183150 0.183150 0.178266 0.168498 0.173382 0.168498 0.163614 0.163614 0.158730 0.163614 0.158730 0.153846 0.158730 0.158730 0.158730 0.173382 0.178266 0.173382 0.178266 0.178266 0.183150 0.188034 0.188034 0.183150 0.188034 0.183150 0.183150 0.178266 0.183150 0.173382 0.163614 0.158730 0.139194 0.134310 0.129426 0.119658 0.114774 0.100122 0.090354 0.075702 0.065934 0.070818 0.056166 0.046398 0.036630 0.036630 0.031746 0.031746 0.021978 0.026862 0.026862 0.017094 0.017094 0.017094 0.026862 0.031746 0.051282 0.061050 0.070818 0.075702 0.105006 0.114774 0.129426 0.139194 0.148962 0.158730 0.158730 0.163614 0.168498 0.173382 0.163614 0.163614 0.163614 0.158730 0.158730 0.158730 0.158730 0.163614 0.153846 0.158730 0.148962 0.158730 0.153846 0.153846 0.153846 0.153846 0.153846 0.148962 0.158730 0.153846 0.158730 0.153846 0.153846 0.148962 0.158730 0.153846 0.148962 0.148962 0.148962 0.148962 0.158730 0.163614 0.168498 0.163614 0.168498 0.168498 0.163614 0.168498 0.168498 0.168498 0.163614 0.168498 0.168498 0.168498 0.168498 0.173382 0.163614 0.158730 0.158730 0.153846 0.153846 0.153846 0.148962 0.148962 0.139194 0.139194 0.139194 0.144078 0.148962 0.153846 0.158730 0.153846 0.158730 0.153846 0.153846 0.153846 0.148962 0.153846 0.148962 0.158730 0.153846 0.153846 0.153846 0.153846 0.148962 0.153846 0.153846 0.148962 0.139194 0.134310 0.134310 0.134310 0.134310 0.129426 0.134310 0.144078 0.139194 0.139194 0.139194 0.139194 0.134310 0.129426 0.129426 0.134310 0.134310 0.124542 0.134310 0.139194 0.134310 0.129426 0.139194 0.139194 0.134310 0.139194 0.134310 0.139194 0.134310 0.134310 0.139194 0.134310 0.139194 0.134310 0.139194 0.134310 0.139194 0.144078 0.153846 0.139194 0.144078 0.134310 0.129426 0.134310 0.134310 0.129426 0.139194 0.134310 0.129426 0.124542 0.129426 0.134310 0.134310 0.139194 0.129426 0.129426 0.139194 0.134310 0.134310 0.134310 0.129426 0.129426 0.139194 0.129426 0.129426 0.134310 0.129426 0.124542 0.129426 0.129426 0.129426 0.124542 0.129426 0.129426 0.129426 0.124542 0.134310 0.129426 0.139194 0.139194 0.139194 0.144078 0.144078 0.144078 0.139194 0.139194 0.134310 0.129426 0.134310 0.139194 0.139194 0.129426 0.124542 0.124542 0.129426 0.124542 0.119658 0.134310 0.134310 0.139194 0.144078 0.139194 0.134310 0.134310 0.134310 0.134310 0.129426 0.134310 0.134310 0.134310 0.134310 0.129426 0.139194 0.134310 0.139194 0.134310 0.139194 0.134310 0.134310 0.129426 0.129426 0.139194 0.134310 0.129426 0.119658 0.119658 0.129426 0.134310 0.129426 0.129426 0.124542 0.124542 0.124542 0.124542 0.119658 0.119658 0.129426 0.124542 0.129426 0.119658 0.119658 0.119658 0.114774 0.109890 0.114774 0.119658 0.119658 0.114774 0.109890 0.105006 0.109890 0.109890 0.119658 0.109890 0.119658 0.124542 0.119658 0.124542 0.129426 0.129426 0.134310 0.139194 0.144078 0.144078 0.148962 0.148962 0.148962 0.158730 0.144078 0.153846 0.148962 0.148962 0.158730 0.148962 0.148962 0.148962 0.144078 0.144078 0.144078 0.139194 0.144078 0.144078 0.144078 0.148962 0.139194 0.148962 0.144078 0.148962 0.144078 0.144078 0.144078 0.148962 0.144078 0.144078 0.148962 0.153846 0.158730 0.153846 0.158730 0.163614 0.163614 0.168498 0.163614 0.168498 0.168498 0.173382 0.168498 0.173382 0.173382 0.178266 0.173382 0.168498 0.178266 0.178266 0.178266 0.173382 0.183150 0.178266 0.183150 0.173382 0.168498 0.173382 0.178266 0.168498 0.168498 0.163614 0.173382 0.168498 0.173382 0.173382 0.168498 0.168498 0.178266 0.168498 0.168498 0.168498 0.163614 0.153846 0.158730 0.153846 0.158730 0.158730 0.153846 0.158730 0.158730 0.153846 0.163614 0.168498 0.168498 0.163614 0.168498 0.163614 0.163614 0.168498 0.168498 0.168498 0.163614 0.168498 0.163614 0.168498 0.153846 0.158730 0.163614 0.163614 0.173382 0.173382 0.168498 0.173382 0.178266 0.178266 0.183150 0.188034 0.188034 0.178266 0.183150 0.183150 0.183150 0.178266 0.178266 0.183150 0.178266 0.183150 0.188034 0.188034 0.188034 0.197802 0.202686 0.197802 0.202686 0.192918 0.188034 0.192918 0.192918 0.188034 0.197802 0.192918 0.188034 0.197802 0.197802 0.192918 0.192918 0.197802 0.197802 0.192918 0.197802 0.197802 0.192918 0.202686 0.202686 0.202686 0.202686 0.197802 0.197802 0.192918 0.202686 0.197802 0.202686 0.192918 0.202686 0.192918 0.192918 0.188034 0.188034 0.188034 0.183150 0.173382 0.173382 0.178266 0.173382 0.178266 0.173382 0.178266 0.178266 0.178266 0.183150 0.188034 0.183150 0.183150 0.192918 0.202686 0.197802 0.202686 0.197802 0.212454 0.207570 0.207570 0.197802 0.202686 0.207570 0.202686 0.197802 0.197802 0.192918 0.188034 0.183150 0.188034 0.188034 0.178266 0.173382 0.173382 0.168498 0.178266 0.168498 0.173382 0.173382 0.173382 0.178266 0.173382 0.178266 0.183150 0.188034 0.178266 0.183150 0.188034 0.178266 0.173382 0.178266 0.173382 0.183150 0.178266 0.178266 0.173382 0.178266 0.178266 0.178266 0.173382 0.173382 0.173382 0.173382 0.173382 0.173382 0.168498 0.178266 0.173382 0.168498 0.168498 0.173382 0.163614 0.168498 0.163614 0.163614 0.163614 0.158730 0.158730 0.158730 0.158730 0.163614 0.173382 0.173382 0.168498 0.168498 0.163614 0.163614 0.163614 0.163614 0.163614 0.168498 0.163614 0.158730 0.168498 0.173382 0.173382 0.178266 0.178266 0.178266 0.183150 0.188034 0.183150 0.188034 0.192918 0.197802 0.197802 0.192918 0.192918 0.192918 0.192918 0.192918 0.188034 0.192918 0.202686 0.192918 0.197802 0.197802 0.207570 0.202686 0.197802 0.202686 0.202686 0.212454 0.202686 0.207570 0.207570 0.202686 0.212454 0.217338 0.212454 0.207570 0.212454 0.212454 0.212454 0.217338 0.212454 0.217338 0.217338 0.212454 0.212454 0.222222 0.227106 0.222222 0.222222 0.212454 0.217338 0.217338 0.212454 0.212454 0.212454 0.217338 0.207570 0.217338 0.212454 0.222222 0.212454 0.227106 0.217338 0.212454 0.212454 0.212454 0.217338 0.222222 0.222222 0.217338 0.217338 0.212454 0.217338 0.217338 0.217338 0.217338 0.202686 0.207570 0.212454 0.212454 0.212454 0.212454 0.207570 0.202686 0.212454 0.207570 0.192918 0.192918 0.192918 0.197802 0.192918 0.183150 0.192918 0.188034 0.197802 0.202686 0.202686 0.202686 0.207570 0.202686 0.202686 0.197802 0.192918 0.188034 0.183150 0.183150 0.192918 0.188034 0.192918 0.188034 0.192918 0.183150 0.183150 0.183150 0.183150 0.183150 0.183150 0.178266 0.183150 0.183150 0.192918 0.188034 0.183150 0.183150 0.183150 0.178266 0.168498 0.168498 0.163614 0.173382 0.173382 0.168498 0.158730 0.163614 0.163614 0.158730 0.158730 0.158730 0.158730 0.153846 0.163614 0.158730 0.163614 0.168498 0.168498 0.168498 0.168498 0.163614 0.173382 0.168498 0.168498 0.168498 0.168498 0.168498 0.163614 0.158730 0.163614 0.158730 0.168498 0.168498 0.163614 0.163614 0.163614 0.163614 0.163614 0.168498 0.163614 0.168498 0.158730 0.163614 0.158730 0.163614 0.168498 0.173382 0.168498 0.163614 0.173382 0.168498 0.173382 0.168498 0.173382 0.168498 0.168498 0.173382 0.173382 0.168498 0.168498 0.178266 0.178266 0.173382 0.173382 0.168498 0.178266 0.168498 0.173382 0.168498 0.173382 0.173382 0.168498 0.178266 0.173382 0.173382 0.173382 0.178266 0.173382 0.178266 0.178266 0.178266 0.178266 0.178266 0.173382 0.173382 0.168498 0.173382 0.173382 0.168498 0.178266 0.178266 0.188034 0.188034 0.188034 0.183150 0.188034 0.192918 0.188034 0.197802 0.188034 0.192918 0.197802 0.197802 0.197802 0.202686 0.202686 0.207570 0.197802 0.207570 0.197802 0.207570 0.207570 0.202686 0.197802 0.197802 0.197802 0.183150 0.178266 0.173382 0.163614 0.158730 0.153846 0.139194 0.129426 0.119658 0.109890 0.105006 0.090354 0.080586 0.065934 0.056166 0.046398 0.041514 0.041514 0.031746 0.031746 0.021978 0.026862 0.026862 0.031746 0.036630 0.046398 0.051282 0.065934 0.070818 0.095238 0.105006 0.119658 0.129426 0.144078 0.144078 0.148962 0.158730 0.163614 0.163614 0.173382 0.168498 0.163614 0.158730 0.163614 0.168498 0.163614 0.163614 0.163614 0.163614 0.168498 0.168498 0.173382 0.168498 0.173382 0.178266 0.173382 0.178266 0.178266 0.178266 0.173382 0.178266 0.183150 0.178266 0.168498 0.168498 0.173382 0.168498 0.173382 0.178266 0.173382 0.173382 0.183150 0.188034 0.183150 0.192918 0.188034 0.188034 0.188034 0.192918 0.192918 0.188034 0.183150 0.178266 0.183150 0.183150 0.188034 0.183150 0.183150 0.192918 0.188034 0.192918 0.197802 0.197802 0.202686 0.197802 0.197802 0.202686 0.188034 0.197802 0.192918 0.197802 0.197802 0.188034 0.197802 0.192918 0.202686 0.192918 0.192918 0.197802 0.197802 0.197802 0.202686 0.192918 0.188034 0.188034 0.192918 0.192918 0.192918 0.188034 0.183150 0.178266 0.183150 0.183150 0.188034 0.192918 0.192918 0.197802 0.202686 0.202686 0.202686 0.202686 0.202686 0.197802 0.188034 0.178266 0.188034 0.192918 0.192918 0.192918 0.188034 0.192918 0.188034 0.188034 0.188034 0.197802 0.197802 0.197802 0.197802 0.197802 0.202686 0.202686 0.197802 0.202686 0.197802 0.188034 0.192918 0.192918 0.197802 0.207570 0.207570 0.212454 0.207570 0.202686 0.202686 0.202686 0.192918 0.202686 0.197802 0.202686 0.192918 0.202686 0.197802 0.202686 0.207570 0.202686 0.197802 0.192918 0.197802 0.197802 0.192918 0.192918 0.192918 0.188034 0.192918 0.197802 0.202686 0.202686 0.192918 0.192918 0.197802 0.192918 0.192918 0.197802 0.192918 0.188034 0.192918 0.192918 0.197802 0.197802 0.192918 0.188034 0.183150 0.183150 0.192918 0.188034 0.192918 0.192918 0.192918 0.188034 0.197802 0.188034 0.192918 0.188034 0.188034 0.178266 0.178266 0.183150 0.178266 0.178266 0.178266 0.188034 0.183150 0.183150 0.183150 0.178266 0.183150 0.178266 0.178266 0.173382 0.178266 0.173382 0.173382 0.168498 0.173382 0.168498 0.178266 0.183150 0.183150 0.173382 0.178266 0.183150 0.188034 0.183150 0.178266 0.183150 0.183150 0.183150 0.183150 0.178266 0.178266 0.183150 0.188034 0.183150 0.188034 0.188034 0.192918 0.197802 0.197802 0.197802 0.192918 0.188034 0.183150 0.188034 0.183150 0.192918 0.188034 0.192918 0.192918 0.192918 0.192918 0.192918 0.188034 0.197802 0.188034 0.192918 0.202686 0.197802 0.207570 0.202686 0.202686 0.202686 0.207570 0.202686 0.212454 0.207570 0.202686 0.212454 0.212454 0.197802 0.202686 0.192918 0.192918 0.197802 0.197802 0.197802 0.197802 0.202686 0.202686 0.202686 0.202686 0.197802 0.192918 0.197802 0.197802 0.197802 0.197802 0.192918 0.202686 0.197802 0.197802 0.197802 0.197802 0.207570 0.207570 0.207570 0.217338 0.217338 0.227106 0.222222 0.222222 0.217338 0.227106 0.227106 0.227106 0.227106 0.227106 0.231990 0.231990 0.231990 0.246642 0.241758 0.236874 0.251526 0.256410 0.251526 0.256410 0.251526 0.256410 0.256410 0.251526 0.256410 0.251526 0.251526 0.256410 0.256410 0.256410 0.246642 0.241758 0.241758 0.246642 0.246642 0.246642 0.241758 0.246642 0.251526 0.251526 0.251526 0.256410 0.246642 0.241758 0.246642 0.241758 0.241758 0.236874 0.241758 0.246642 0.241758 0.241758 0.246642 0.246642 0.246642 0.251526 0.246642 0.251526 0.246642 0.251526 0.256410 0.261294 0.266178 0.261294 0.261294 0.266178 0.256410 0.261294 0.256410 0.261294 0.256410 0.261294 0.256410 0.251526 0.251526 0.256410 0.251526 0.246642 0.261294 0.261294 0.271062 0.271062 0.266178 0.271062 0.275946 0.271062 0.271062 0.266178 0.271062 0.266178 0.271062 0.256410 0.261294 0.251526 0.266178 0.256410 0.261294 0.256410 0.256410 0.256410 0.261294 0.256410 0.256410 0.251526 0.256410 0.251526 0.251526 0.256410 0.251526 0.251526 0.246642 0.246642 0.251526 0.256410 0.261294 0.256410 0.256410 0.256410 0.256410 0.256410 0.261294 0.261294 0.256410 0.261294 0.266178 0.266178 0.266178 0.271062 0.261294 0.266178 0.266178 0.261294 0.266178 0.266178 0.266178 0.261294 0.261294 0.271062 0.266178 0.275946 0.275946 0.275946 0.275946 0.275946 0.275946 0.280830 0.266178 0.266178 0.256410 0.261294 0.256410 0.251526 0.256410 0.251526 0.251526 0.251526 0.251526 0.251526 0.246642 0.251526 0.236874 0.251526 0.251526 0.246642 0.241758 0.251526 0.241758 0.246642 0.241758 0.246642 0.246642 0.251526 0.246642 0.251526 0.246642 0.241758 0.236874 0.236874 0.231990 0.241758 0.246642 0.246642 0.241758 0.246642 0.241758 0.241758 0.241758 0.246642 0.251526 0.246642 0.241758 0.246642 0.241758 0.236874 0.246642 0.251526 0.251526 0.256410 0.256410 0.256410 0.261294 0.256410 0.266178 0.261294 0.256410 0.261294 0.256410 0.261294 0.251526 0.256410 0.256410 0.261294 0.256410 0.256410 0.256410 0.261294 0.266178 0.261294 0.261294 0.251526 0.251526 0.246642 0.251526 0.241758 0.246642 0.241758 0.241758 0.251526 0.251526 0.256410 0.256410 0.261294 0.261294 0.266178 0.256410 0.256410 0.251526 0.251526 0.251526 0.256410 0.256410 0.251526 0.246642 0.246642 0.246642 0.246642 0.246642 0.251526 0.256410 0.251526 0.256410 0.261294 0.266178 0.266178 0.266178 0.261294 0.266178 0.271062 0.271062 0.275946 0.275946 0.266178 0.275946 0.266178 0.261294 0.266178 0.266178 0.266178 0.280830 0.275946 0.280830 0.275946 0.261294 0.261294 0.261294 0.271062 0.271062 0.271062 0.271062 0.271062 0.280830 0.280830 0.285714 0.280830 0.290598 0.285714 0.295482 